"sample_cerveny - RawData"
"Wavelength nm.","T%"
200.00,0.149
200.50,0.106
201.00,0.136
201.50,0.047
202.00,0.123
202.50,0.174
203.00,-0.048
203.50,-0.016
204.00,-0.138
204.50,-0.007
205.00,-0.110
205.50,-0.087
206.00,-0.060
206.50,0.010
207.00,0.015
207.50,0.057
208.00,-0.024
208.50,-0.058
209.00,-0.009
209.50,0.017
210.00,-0.050
210.50,-0.031
211.00,0.067
211.50,0.005
212.00,0.050
212.50,-0.006
213.00,-0.028
213.50,-0.027
214.00,-0.019
214.50,-0.041
215.00,-0.010
215.50,0.002
216.00,-0.039
216.50,0.012
217.00,-0.052
217.50,-0.048
218.00,-0.012
218.50,-0.004
219.00,0.016
219.50,-0.008
220.00,0.016
220.50,0.008
221.00,0.037
221.50,-0.011
222.00,-0.039
222.50,0.027
223.00,-0.021
223.50,0.041
224.00,0.000
224.50,-0.019
225.00,0.032
225.50,-0.004
226.00,-0.008
226.50,-0.002
227.00,0.009
227.50,-0.008
228.00,0.004
228.50,0.008
229.00,-0.001
229.50,-0.000
230.00,-0.006
230.50,0.002
231.00,-0.012
231.50,0.014
232.00,-0.014
232.50,0.004
233.00,0.008
233.50,0.002
234.00,0.008
234.50,0.010
235.00,0.001
235.50,0.003
236.00,-0.007
236.50,0.002
237.00,0.009
237.50,-0.001
238.00,0.008
238.50,-0.016
239.00,0.001
239.50,-0.014
240.00,-0.008
240.50,0.001
241.00,0.008
241.50,-0.015
242.00,-0.015
242.50,-0.005
243.00,-0.007
243.50,-0.013
244.00,0.007
244.50,0.008
245.00,-0.003
245.50,0.009
246.00,0.004
246.50,0.004
247.00,0.003
247.50,-0.001
248.00,-0.004
248.50,0.018
249.00,0.010
249.50,-0.018
250.00,0.011
250.50,0.004
251.00,0.001
251.50,0.012
252.00,-0.007
252.50,-0.015
253.00,-0.003
253.50,0.009
254.00,-0.003
254.50,0.014
255.00,0.003
255.50,-0.006
256.00,-0.002
256.50,0.018
257.00,0.003
257.50,0.005
258.00,-0.011
258.50,-0.004
259.00,-0.001
259.50,0.007
260.00,0.012
260.50,0.006
261.00,-0.000
261.50,-0.017
262.00,-0.007
262.50,0.007
263.00,0.010
263.50,0.003
264.00,0.008
264.50,0.013
265.00,-0.014
265.50,0.005
266.00,0.005
266.50,0.001
267.00,0.010
267.50,-0.000
268.00,-0.007
268.50,0.004
269.00,0.006
269.50,0.002
270.00,0.011
270.50,0.017
271.00,-0.010
271.50,0.019
272.00,0.004
272.50,0.004
273.00,0.004
273.50,0.012
274.00,0.019
274.50,0.006
275.00,0.008
275.50,0.011
276.00,0.007
276.50,0.003
277.00,0.030
277.50,0.010
278.00,0.021
278.50,0.014
279.00,0.007
279.50,0.031
280.00,0.028
280.50,0.018
281.00,0.037
281.50,0.037
282.00,0.038
282.50,0.033
283.00,0.048
283.50,0.052
284.00,0.060
284.50,0.052
285.00,0.044
285.50,0.074
286.00,0.065
286.50,0.067
287.00,0.081
287.50,0.103
288.00,0.097
288.50,0.102
289.00,0.130
289.50,0.150
290.00,0.131
290.50,0.176
291.00,0.173
291.50,0.190
292.00,0.227
292.50,0.242
293.00,0.266
293.50,0.273
294.00,0.289
294.50,0.330
295.00,0.388
295.50,0.407
296.00,0.443
296.50,0.494
297.00,0.582
297.50,0.625
298.00,0.689
298.50,0.768
299.00,0.860
299.50,0.909
300.00,1.007
300.50,1.145
301.00,1.246
301.50,1.363
302.00,1.455
302.50,1.581
303.00,1.684
303.50,1.867
304.00,2.021
304.50,2.093
305.00,2.325
305.50,2.510
306.00,2.694
306.50,2.971
307.00,3.111
307.50,3.363
308.00,3.605
308.50,3.887
309.00,4.092
309.50,4.292
310.00,4.509
310.50,4.790
311.00,5.139
311.50,5.335
312.00,5.668
312.50,5.922
313.00,6.269
313.50,6.391
314.00,6.688
314.50,7.028
315.00,7.328
315.50,7.432
316.00,7.679
316.50,7.840
317.00,8.066
317.50,8.331
318.00,8.551
318.50,8.750
319.00,8.899
319.50,9.151
320.00,9.249
320.50,9.514
321.00,9.499
321.50,9.702
322.00,9.725
322.50,9.922
323.00,10.095
323.50,10.175
324.00,10.200
324.50,10.263
325.00,10.537
325.50,10.577
326.00,10.526
326.50,10.552
327.00,10.557
327.50,10.607
328.00,10.764
328.50,10.651
329.00,10.691
329.50,10.771
330.00,10.884
330.50,10.727
331.00,10.783
331.50,10.619
332.00,10.700
332.50,10.552
333.00,10.753
333.50,10.553
334.00,10.686
334.50,10.491
335.00,10.544
335.50,10.401
336.00,10.397
336.50,10.226
337.00,10.261
337.50,10.218
338.00,10.134
338.50,10.045
339.00,10.138
339.50,9.991
340.00,9.822
340.50,9.278
341.00,9.268
341.50,10.063
342.00,8.941
342.50,9.648
343.00,9.556
343.50,9.361
344.00,9.436
344.50,8.644
345.00,8.788
345.50,8.988
346.00,8.949
346.50,8.775
347.00,8.724
347.50,8.470
348.00,8.252
348.50,8.599
349.00,8.067
349.50,8.213
350.00,8.227
350.50,8.287
351.00,8.082
351.50,8.056
352.00,7.685
352.50,7.881
353.00,7.482
353.50,7.513
354.00,7.552
354.50,7.578
355.00,7.514
355.50,7.212
356.00,7.223
356.50,7.205
357.00,7.084
357.50,6.992
358.00,7.091
358.50,6.846
359.00,6.699
359.50,6.763
360.00,6.577
360.50,6.409
361.00,6.521
361.50,6.315
362.00,6.293
362.50,6.205
363.00,6.203
363.50,6.113
364.00,5.967
364.50,5.895
365.00,5.823
365.50,5.681
366.00,5.714
366.50,5.730
367.00,5.672
367.50,5.504
368.00,5.437
368.50,5.386
369.00,5.304
369.50,5.359
370.00,5.180
370.50,5.256
371.00,5.087
371.50,4.974
372.00,4.979
372.50,4.863
373.00,4.845
373.50,4.758
374.00,4.752
374.50,4.670
375.00,4.530
375.50,4.536
376.00,4.486
376.50,4.445
377.00,4.413
377.50,4.345
378.00,4.173
378.50,4.234
379.00,4.222
379.50,4.106
380.00,4.024
380.50,3.998
381.00,3.937
381.50,3.891
382.00,3.885
382.50,3.794
383.00,3.769
383.50,3.723
384.00,3.702
384.50,3.619
385.00,3.587
385.50,3.578
386.00,3.504
386.50,3.463
387.00,3.352
387.50,3.369
388.00,3.281
388.50,3.265
389.00,3.245
389.50,3.184
390.00,3.195
390.50,3.127
391.00,3.074
391.50,3.022
392.00,2.962
392.50,2.958
393.00,2.933
393.50,2.846
394.00,2.854
394.50,2.795
395.00,2.772
395.50,2.763
396.00,2.708
396.50,2.659
397.00,2.611
397.50,2.621
398.00,2.599
398.50,2.519
399.00,2.514
399.50,2.495
400.00,2.452
400.50,2.430
401.00,2.377
401.50,2.347
402.00,2.348
402.50,2.266
403.00,2.221
403.50,2.232
404.00,2.196
404.50,2.204
405.00,2.148
405.50,2.110
406.00,2.103
406.50,2.066
407.00,2.044
407.50,2.045
408.00,2.003
408.50,1.964
409.00,1.939
409.50,1.915
410.00,1.909
410.50,1.888
411.00,1.850
411.50,1.837
412.00,1.829
412.50,1.817
413.00,1.756
413.50,1.749
414.00,1.729
414.50,1.713
415.00,1.692
415.50,1.650
416.00,1.668
416.50,1.652
417.00,1.649
417.50,1.598
418.00,1.588
418.50,1.570
419.00,1.549
419.50,1.552
420.00,1.523
420.50,1.505
421.00,1.472
421.50,1.488
422.00,1.470
422.50,1.439
423.00,1.437
423.50,1.419
424.00,1.410
424.50,1.396
425.00,1.394
425.50,1.379
426.00,1.369
426.50,1.342
427.00,1.353
427.50,1.318
428.00,1.304
428.50,1.318
429.00,1.302
429.50,1.287
430.00,1.277
430.50,1.282
431.00,1.272
431.50,1.255
432.00,1.234
432.50,1.246
433.00,1.240
433.50,1.201
434.00,1.228
434.50,1.218
435.00,1.199
435.50,1.192
436.00,1.187
436.50,1.177
437.00,1.179
437.50,1.186
438.00,1.168
438.50,1.159
439.00,1.142
439.50,1.136
440.00,1.124
440.50,1.126
441.00,1.133
441.50,1.118
442.00,1.095
442.50,1.099
443.00,1.107
443.50,1.097
444.00,1.087
444.50,1.091
445.00,1.079
445.50,1.075
446.00,1.072
446.50,1.070
447.00,1.051
447.50,1.056
448.00,1.054
448.50,1.060
449.00,1.059
449.50,1.055
450.00,1.041
450.50,1.047
451.00,1.038
451.50,1.019
452.00,1.033
452.50,1.042
453.00,1.026
453.50,1.022
454.00,1.021
454.50,1.032
455.00,1.014
455.50,1.020
456.00,1.038
456.50,1.015
457.00,1.012
457.50,0.996
458.00,1.015
458.50,1.002
459.00,1.002
459.50,0.998
460.00,1.017
460.50,0.998
461.00,0.991
461.50,1.011
462.00,1.009
462.50,0.983
463.00,0.983
463.50,1.003
464.00,0.998
464.50,0.985
465.00,0.990
465.50,0.996
466.00,0.977
466.50,0.998
467.00,0.995
467.50,0.996
468.00,0.994
468.50,0.999
469.00,1.003
469.50,1.007
470.00,1.012
470.50,1.010
471.00,1.013
471.50,1.021
472.00,1.027
472.50,1.018
473.00,1.025
473.50,1.041
474.00,1.031
474.50,1.021
475.00,1.041
475.50,1.035
476.00,1.052
476.50,1.058
477.00,1.053
477.50,1.068
478.00,1.080
478.50,1.080
479.00,1.086
479.50,1.095
480.00,1.099
480.50,1.102
481.00,1.101
481.50,1.126
482.00,1.139
482.50,1.137
483.00,1.151
483.50,1.163
484.00,1.171
484.50,1.204
485.00,1.199
485.50,1.207
486.00,1.218
486.50,1.228
487.00,1.266
487.50,1.263
488.00,1.276
488.50,1.302
489.00,1.300
489.50,1.329
490.00,1.349
490.50,1.361
491.00,1.392
491.50,1.422
492.00,1.416
492.50,1.470
493.00,1.462
493.50,1.496
494.00,1.539
494.50,1.549
495.00,1.573
495.50,1.600
496.00,1.627
496.50,1.672
497.00,1.689
497.50,1.723
498.00,1.761
498.50,1.797
499.00,1.839
499.50,1.878
500.00,1.921
500.50,1.928
501.00,1.969
501.50,2.031
502.00,2.066
502.50,2.106
503.00,2.165
503.50,2.205
504.00,2.267
504.50,2.296
505.00,2.351
505.50,2.401
506.00,2.443
506.50,2.507
507.00,2.563
507.50,2.628
508.00,2.673
508.50,2.709
509.00,2.804
509.50,2.866
510.00,2.938
510.50,2.977
511.00,3.085
511.50,3.143
512.00,3.193
512.50,3.274
513.00,3.364
513.50,3.451
514.00,3.529
514.50,3.633
515.00,3.666
515.50,3.775
516.00,3.852
516.50,3.976
517.00,4.023
517.50,4.143
518.00,4.248
518.50,4.367
519.00,4.436
519.50,4.530
520.00,4.649
520.50,4.745
521.00,4.846
521.50,4.982
522.00,5.066
522.50,5.233
523.00,5.327
523.50,5.457
524.00,5.574
524.50,5.694
525.00,5.839
525.50,5.944
526.00,6.085
526.50,6.235
527.00,6.398
527.50,6.519
528.00,6.641
528.50,6.760
529.00,6.933
529.50,7.096
530.00,7.274
530.50,7.420
531.00,7.552
531.50,7.751
532.00,7.876
532.50,8.044
533.00,8.234
533.50,8.435
534.00,8.600
534.50,8.799
535.00,8.878
535.50,9.107
536.00,9.329
536.50,9.520
537.00,9.717
537.50,9.902
538.00,10.112
538.50,10.291
539.00,10.535
539.50,10.731
540.00,10.995
540.50,11.195
541.00,11.420
541.50,11.645
542.00,11.825
542.50,12.079
543.00,12.367
543.50,12.539
544.00,12.739
544.50,12.990
545.00,13.221
545.50,13.468
546.00,13.695
546.50,13.993
547.00,14.185
547.50,14.417
548.00,14.616
548.50,14.888
549.00,15.135
549.50,15.368
550.00,15.604
550.50,15.886
551.00,16.060
551.50,16.275
552.00,16.585
552.50,16.727
553.00,17.008
553.50,17.251
554.00,17.511
554.50,17.742
555.00,17.992
555.50,18.182
556.00,18.500
556.50,18.679
557.00,18.916
557.50,19.103
558.00,19.397
558.50,19.591
559.00,19.821
559.50,20.012
560.00,20.282
560.50,20.456
561.00,20.725
561.50,20.818
562.00,21.063
562.50,21.240
563.00,21.420
563.50,21.653
564.00,21.827
564.50,22.022
565.00,22.211
565.50,22.445
566.00,22.564
566.50,22.725
567.00,22.963
567.50,23.056
568.00,23.117
568.50,23.350
569.00,23.461
569.50,23.558
570.00,23.706
570.50,23.777
571.00,23.887
571.50,24.019
572.00,24.057
572.50,24.111
573.00,24.191
573.50,24.277
574.00,24.292
574.50,24.311
575.00,24.336
575.50,24.433
576.00,24.352
576.50,24.365
577.00,24.360
577.50,24.333
578.00,24.326
578.50,24.302
579.00,24.329
579.50,24.211
580.00,24.210
580.50,24.171
581.00,24.174
581.50,24.138
582.00,24.123
582.50,24.128
583.00,24.111
583.50,24.058
584.00,24.077
584.50,23.919
585.00,23.964
585.50,23.948
586.00,23.901
586.50,23.898
587.00,23.843
587.50,23.810
588.00,23.772
588.50,23.717
589.00,23.710
589.50,23.733
590.00,23.655
590.50,23.578
591.00,23.477
591.50,23.456
592.00,23.453
592.50,23.401
593.00,23.311
593.50,23.270
594.00,23.141
594.50,23.061
595.00,22.923
595.50,22.943
596.00,22.809
596.50,22.716
597.00,22.624
597.50,22.449
598.00,22.401
598.50,22.245
599.00,22.142
599.50,21.967
600.00,21.836
600.50,21.675
601.00,21.547
601.50,21.362
602.00,21.181
602.50,21.004
603.00,20.838
603.50,20.609
604.00,20.452
604.50,20.228
605.00,20.048
605.50,19.849
606.00,19.679
606.50,19.478
607.00,19.368
607.50,19.197
608.00,19.106
608.50,18.990
609.00,18.904
609.50,18.812
610.00,18.741
610.50,18.656
611.00,18.711
611.50,18.628
612.00,18.573
612.50,18.626
613.00,18.661
613.50,18.663
614.00,18.770
614.50,18.790
615.00,18.876
615.50,18.901
616.00,18.995
616.50,19.045
617.00,19.156
617.50,19.221
618.00,19.240
618.50,19.421
619.00,19.531
619.50,19.682
620.00,19.757
620.50,19.890
621.00,20.009
621.50,20.173
622.00,20.284
622.50,20.440
623.00,20.563
623.50,20.716
624.00,20.833
624.50,20.976
625.00,21.169
625.50,21.323
626.00,21.439
626.50,21.612
627.00,21.801
627.50,21.919
628.00,22.032
628.50,22.257
629.00,22.481
629.50,22.777
630.00,22.868
630.50,23.050
631.00,23.162
631.50,23.391
632.00,23.622
632.50,23.730
633.00,23.924
633.50,24.101
634.00,24.285
634.50,24.479
635.00,24.557
635.50,24.782
636.00,24.885
636.50,25.050
637.00,25.243
637.50,25.387
638.00,25.403
638.50,25.566
639.00,25.570
639.50,25.636
640.00,25.641
640.50,25.660
641.00,25.596
641.50,25.514
642.00,25.634
642.50,25.599
643.00,25.538
643.50,25.586
644.00,25.536
644.50,25.507
645.00,25.589
645.50,25.543
646.00,25.674
646.50,25.547
647.00,25.644
647.50,25.652
648.00,25.722
648.50,25.855
649.00,25.867
649.50,25.949
650.00,25.982
650.50,26.093
651.00,26.174
651.50,26.312
652.00,26.428
652.50,26.488
653.00,26.550
653.50,26.672
654.00,26.853
654.50,26.922
655.00,27.135
655.50,27.308
656.00,27.405
656.50,27.568
657.00,27.628
657.50,27.937
658.00,28.041
658.50,28.170
659.00,28.417
659.50,28.564
660.00,28.709
660.50,28.858
661.00,28.990
661.50,29.198
662.00,29.353
662.50,29.565
663.00,29.630
663.50,29.884
664.00,30.111
664.50,30.218
665.00,30.399
665.50,30.587
666.00,30.778
666.50,30.996
667.00,31.204
667.50,31.301
668.00,31.554
668.50,31.715
669.00,31.800
669.50,32.054
670.00,32.187
670.50,32.470
671.00,32.673
671.50,32.917
672.00,33.291
672.50,33.461
673.00,33.754
673.50,33.975
674.00,34.447
674.50,34.805
675.00,35.146
675.50,35.456
676.00,35.810
676.50,36.175
677.00,36.632
677.50,37.067
678.00,37.541
678.50,37.762
679.00,38.310
679.50,38.846
680.00,39.306
680.50,39.648
681.00,40.475
681.50,40.809
682.00,41.414
682.50,41.857
683.00,42.467
683.50,43.049
684.00,43.596
684.50,44.095
685.00,44.798
685.50,45.241
686.00,45.800
686.50,46.147
687.00,46.578
687.50,46.841
688.00,47.317
688.50,47.617
689.00,48.463
689.50,49.319
690.00,49.683
690.50,50.303
691.00,50.785
691.50,51.405
692.00,51.800
692.50,52.221
693.00,52.806
693.50,53.115
694.00,53.663
694.50,54.034
695.00,54.462
695.50,55.043
696.00,55.238
696.50,55.689
697.00,55.959
697.50,56.576
698.00,56.914
698.50,57.388
699.00,57.665
699.50,57.882
700.00,58.253
700.50,58.871
701.00,59.006
701.50,59.607
702.00,59.817
702.50,60.409
703.00,60.353
703.50,60.784
704.00,60.994
704.50,61.229
705.00,61.541
705.50,61.733
706.00,61.952
706.50,62.349
707.00,62.490
707.50,62.570
708.00,62.712
708.50,63.011
709.00,63.280
709.50,63.609
710.00,63.583
710.50,63.927
711.00,64.109
711.50,64.087
712.00,64.372
712.50,64.752
713.00,64.934
713.50,64.860
714.00,64.897
714.50,65.169
715.00,65.357
715.50,65.539
716.00,65.467
716.50,65.605
717.00,65.814
717.50,65.953
718.00,66.210
718.50,66.228
719.00,66.170
719.50,66.062
720.00,66.364
720.50,66.424
721.00,66.567
721.50,66.722
722.00,66.558
722.50,66.970
723.00,66.942
723.50,67.086
724.00,66.960
724.50,67.152
725.00,67.007
725.50,67.098
726.00,67.181
726.50,67.224
727.00,67.248
727.50,67.447
728.00,67.136
728.50,67.534
729.00,67.372
729.50,67.400
730.00,67.639
730.50,67.892
731.00,67.593
731.50,67.421
732.00,67.605
732.50,67.686
733.00,67.674
733.50,67.815
734.00,67.714
734.50,68.162
735.00,67.683
735.50,67.521
736.00,67.853
736.50,67.673
737.00,67.834
737.50,67.920
738.00,67.951
738.50,67.847
739.00,68.157
739.50,67.623
740.00,67.988
740.50,67.971
741.00,67.900
741.50,67.988
742.00,67.764
742.50,68.079
743.00,67.894
743.50,67.853
744.00,68.101
744.50,67.890
745.00,67.971
745.50,67.825
746.00,67.809
746.50,67.989
747.00,67.736
747.50,67.900
748.00,67.983
748.50,67.901
749.00,68.108
749.50,67.918
750.00,67.965
750.50,67.891
751.00,67.762
751.50,67.839
752.00,67.902
752.50,67.754
753.00,67.743
753.50,67.775
754.00,67.980
754.50,67.641
755.00,67.629
755.50,68.136
756.00,67.800
756.50,67.718
757.00,67.526
757.50,67.746
758.00,67.871
758.50,67.887
759.00,67.748
759.50,67.822
760.00,67.732
760.50,67.387
761.00,67.593
761.50,67.641
762.00,67.401
762.50,67.632
763.00,67.507
763.50,67.747
764.00,67.762
764.50,67.521
765.00,67.426
765.50,67.562
766.00,67.565
766.50,67.563
767.00,67.370
767.50,67.677
768.00,67.663
768.50,67.349
769.00,67.471
769.50,67.426
770.00,67.490
770.50,67.071
771.00,67.584
771.50,67.162
772.00,67.080
772.50,67.676
773.00,67.155
773.50,67.189
774.00,67.434
774.50,67.192
775.00,67.215
775.50,67.403
776.00,67.358
776.50,67.063
777.00,67.076
777.50,67.127
778.00,67.317
778.50,67.545
779.00,67.113
779.50,67.020
780.00,67.101
780.50,66.857
781.00,66.917
781.50,66.810
782.00,66.932
782.50,66.840
783.00,66.743
783.50,66.779
784.00,67.056
784.50,66.773
785.00,67.010
785.50,66.606
786.00,66.611
786.50,66.739
787.00,66.552
787.50,66.515
788.00,66.578
788.50,66.531
789.00,66.414
789.50,66.656
790.00,66.377
790.50,66.342
791.00,66.175
791.50,66.401
792.00,66.158
792.50,65.882
793.00,65.936
793.50,65.752
794.00,65.997
794.50,65.887
795.00,66.166
795.50,66.213
796.00,65.494
796.50,65.612
797.00,65.718
797.50,65.408
798.00,65.773
798.50,65.766
799.00,65.568
799.50,64.979
800.00,65.584
800.50,65.750
801.00,65.685
801.50,65.424
802.00,65.126
802.50,64.938
803.00,65.351
803.50,64.739
804.00,65.042
804.50,64.870
805.00,65.212
805.50,65.314
806.00,64.692
806.50,65.003
807.00,64.925
807.50,64.796
808.00,64.289
808.50,64.485
809.00,65.023
809.50,64.460
810.00,64.492
810.50,64.150
811.00,64.200
811.50,64.062
812.00,63.915
812.50,64.383
813.00,64.463
813.50,64.077
814.00,64.055
814.50,63.569
815.00,63.839
815.50,63.875
816.00,63.556
816.50,63.483
817.00,64.103
817.50,63.854
818.00,63.348
818.50,63.512
819.00,63.104
819.50,63.043
820.00,63.005
820.50,63.177
821.00,62.995
821.50,63.441
822.00,62.739
822.50,63.263
823.00,63.225
823.50,63.096
824.00,62.809
824.50,62.681
825.00,62.377
825.50,62.685
826.00,62.520
826.50,62.416
827.00,63.237
827.50,61.865
828.00,62.329
828.50,62.178
829.00,62.512
829.50,62.011
830.00,61.899
830.50,61.924
831.00,61.951
831.50,62.169
832.00,62.088
832.50,61.445
833.00,62.296
833.50,62.136
834.00,62.006
834.50,61.624
835.00,61.742
835.50,61.579
836.00,61.187
836.50,61.777
837.00,61.562
837.50,61.414
838.00,61.412
838.50,61.600
839.00,60.672
839.50,60.766
840.00,60.913
840.50,61.230
841.00,61.411
841.50,60.509
842.00,61.076
842.50,60.849
843.00,61.115
843.50,60.377
844.00,60.592
844.50,60.017
845.00,60.230
845.50,60.479
846.00,60.472
846.50,60.414
847.00,60.493
847.50,60.121
848.00,59.768
848.50,60.464
849.00,60.726
849.50,59.958
850.00,60.139
850.50,59.700
851.00,59.288
851.50,59.759
852.00,59.501
852.50,59.475
853.00,59.760
853.50,59.561
854.00,59.673
854.50,59.480
855.00,58.882
855.50,59.597
856.00,58.979
856.50,58.672
857.00,59.556
857.50,59.104
858.00,58.966
858.50,58.751
859.00,58.694
859.50,59.237
860.00,58.216
860.50,58.537
861.00,58.542
861.50,58.582
862.00,58.209
862.50,57.894
863.00,58.137
863.50,57.340
864.00,58.428
864.50,57.891
865.00,58.273
865.50,57.530
866.00,57.430
866.50,57.722
867.00,58.162
867.50,58.523
868.00,57.748
868.50,57.701
869.00,57.641
869.50,57.535
870.00,57.752
870.50,58.092
871.00,57.270
871.50,56.884
872.00,57.796
872.50,57.521
873.00,57.207
873.50,56.886
874.00,57.448
874.50,57.276
875.00,57.016
875.50,56.506
876.00,56.826
876.50,57.889
877.00,56.214
877.50,56.234
878.00,56.612
878.50,56.205
879.00,56.636
879.50,55.814
880.00,56.377
880.50,57.572
881.00,57.418
881.50,57.012
882.00,56.577
882.50,56.184
883.00,54.838
883.50,55.919
884.00,55.423
884.50,55.679
885.00,55.829
885.50,55.794
886.00,55.107
886.50,56.854
887.00,55.775
887.50,56.330
888.00,55.931
888.50,56.511
889.00,55.896
889.50,54.287
890.00,54.240
890.50,54.193
891.00,55.282
891.50,54.673
892.00,54.402
892.50,54.136
893.00,56.659
893.50,55.342
894.00,56.080
894.50,56.204
895.00,56.342
895.50,54.211
896.00,55.553
896.50,55.013
897.00,54.346
897.50,54.849
898.00,55.623
898.50,51.608
899.00,52.883
899.50,56.810
900.00,55.504
900.50,53.990
901.00,53.978
901.50,53.880
902.00,53.817
902.50,53.905
903.00,53.826
903.50,53.815
904.00,53.827
904.50,53.808
905.00,53.603
905.50,53.806
906.00,53.690
906.50,53.738
907.00,53.651
907.50,53.613
908.00,53.674
908.50,53.781
909.00,53.634
909.50,53.582
910.00,53.556
910.50,53.596
911.00,53.414
911.50,53.554
912.00,53.472
912.50,53.550
913.00,53.630
913.50,53.344
914.00,53.342
914.50,53.379
915.00,53.460
915.50,53.380
916.00,53.357
916.50,53.262
917.00,53.373
917.50,53.384
918.00,53.372
918.50,53.381
919.00,53.273
919.50,53.215
920.00,53.377
920.50,53.397
921.00,53.329
921.50,53.361
922.00,53.255
922.50,53.360
923.00,53.313
923.50,53.290
924.00,53.195
924.50,53.331
925.00,53.360
925.50,53.293
926.00,53.284
926.50,53.222
927.00,53.241
927.50,53.295
928.00,53.166
928.50,53.087
929.00,53.127
929.50,53.123
930.00,53.156
930.50,53.164
931.00,53.169
931.50,53.168
932.00,53.147
932.50,53.180
933.00,53.091
933.50,53.155
934.00,53.075
934.50,53.026
935.00,53.077
935.50,53.016
936.00,52.979
936.50,53.077
937.00,52.875
937.50,53.018
938.00,52.930
938.50,52.947
939.00,52.949
939.50,52.834
940.00,52.905
940.50,52.832
941.00,52.817
941.50,52.775
942.00,52.812
942.50,52.783
943.00,52.736
943.50,52.692
944.00,52.672
944.50,52.676
945.00,52.639
945.50,52.683
946.00,52.636
946.50,52.660
947.00,52.623
947.50,52.620
948.00,52.537
948.50,52.521
949.00,52.438
949.50,52.465
950.00,52.452
950.50,52.336
951.00,52.386
951.50,52.340
952.00,52.377
952.50,52.279
953.00,52.218
953.50,52.148
954.00,52.120
954.50,52.087
955.00,52.083
955.50,52.125
956.00,52.078
956.50,51.986
957.00,51.920
957.50,51.989
958.00,51.916
958.50,51.879
959.00,51.861
959.50,51.866
960.00,51.803
960.50,51.819
961.00,51.743
961.50,51.648
962.00,51.665
962.50,51.643
963.00,51.565
963.50,51.585
964.00,51.533
964.50,51.516
965.00,51.511
965.50,51.489
966.00,51.527
966.50,51.387
967.00,51.447
967.50,51.326
968.00,51.348
968.50,51.270
969.00,51.278
969.50,51.298
970.00,51.240
970.50,51.165
971.00,51.208
971.50,51.193
972.00,51.116
972.50,51.054
973.00,51.064
973.50,51.042
974.00,50.984
974.50,50.975
975.00,50.951
975.50,50.834
976.00,50.932
976.50,50.861
977.00,50.741
977.50,50.800
978.00,50.724
978.50,50.722
979.00,50.704
979.50,50.629
980.00,50.524
980.50,50.515
981.00,50.448
981.50,50.389
982.00,50.446
982.50,50.401
983.00,50.311
983.50,50.313
984.00,50.292
984.50,50.189
985.00,50.227
985.50,50.158
986.00,50.117
986.50,50.067
987.00,50.034
987.50,49.934
988.00,49.958
988.50,49.884
989.00,49.845
989.50,49.817
990.00,49.765
990.50,49.783
991.00,49.689
991.50,49.621
992.00,49.591
992.50,49.517
993.00,49.522
993.50,49.478
994.00,49.419
994.50,49.403
995.00,49.354
995.50,49.270
996.00,49.254
996.50,49.265
997.00,49.183
997.50,49.144
998.00,49.121
998.50,49.027
999.00,48.954
999.50,48.949
1000.00,48.861
1000.50,48.871
1001.00,48.775
1001.50,48.727
1002.00,48.714
1002.50,48.580
1003.00,48.528
1003.50,48.486
1004.00,48.397
1004.50,48.311
1005.00,48.313
1005.50,48.234
1006.00,48.195
1006.50,48.100
1007.00,48.078
1007.50,47.972
1008.00,47.938
1008.50,47.884
1009.00,47.835
1009.50,47.726
1010.00,47.698
1010.50,47.595
1011.00,47.576
1011.50,47.510
1012.00,47.457
1012.50,47.418
1013.00,47.324
1013.50,47.341
1014.00,47.209
1014.50,47.183
1015.00,47.159
1015.50,47.123
1016.00,47.054
1016.50,47.032
1017.00,46.985
1017.50,46.940
1018.00,46.944
1018.50,46.883
1019.00,46.835
1019.50,46.888
1020.00,46.888
1020.50,46.901
1021.00,46.867
1021.50,46.867
1022.00,46.865
1022.50,46.906
1023.00,46.938
1023.50,46.927
1024.00,46.939
1024.50,46.945
1025.00,46.956
1025.50,46.970
1026.00,46.988
1026.50,47.024
1027.00,47.014
1027.50,47.077
1028.00,47.072
1028.50,47.081
1029.00,47.117
1029.50,47.124
1030.00,47.127
1030.50,47.097
1031.00,47.106
1031.50,47.123
1032.00,47.116
1032.50,47.095
1033.00,47.077
1033.50,47.071
1034.00,47.107
1034.50,47.068
1035.00,47.066
1035.50,47.047
1036.00,47.040
1036.50,47.076
1037.00,47.066
1037.50,47.041
1038.00,47.063
1038.50,47.031
1039.00,47.055
1039.50,47.098
1040.00,47.047
1040.50,47.054
1041.00,47.079
1041.50,47.059
1042.00,47.081
1042.50,47.062
1043.00,47.088
1043.50,47.078
1044.00,47.075
1044.50,47.107
1045.00,47.064
1045.50,47.118
1046.00,47.187
1046.50,47.226
1047.00,47.233
1047.50,47.247
1048.00,47.286
1048.50,47.320
1049.00,47.389
1049.50,47.464
1050.00,47.485
1050.50,47.524
1051.00,47.560
1051.50,47.630
1052.00,47.722
1052.50,47.763
1053.00,47.858
1053.50,47.962
1054.00,48.000
1054.50,48.098
1055.00,48.157
1055.50,48.226
1056.00,48.330
1056.50,48.427
1057.00,48.500
1057.50,48.600
1058.00,48.714
1058.50,48.805
1059.00,48.900
1059.50,49.001
1060.00,49.117
1060.50,49.113
1061.00,49.240
1061.50,49.365
1062.00,49.431
1062.50,49.550
1063.00,49.645
1063.50,49.726
1064.00,49.822
1064.50,49.905
1065.00,49.984
1065.50,50.077
1066.00,50.233
1066.50,50.320
1067.00,50.386
1067.50,50.502
1068.00,50.616
1068.50,50.754
1069.00,50.833
1069.50,50.881
1070.00,51.030
1070.50,51.122
1071.00,51.225
1071.50,51.360
1072.00,51.440
1072.50,51.547
1073.00,51.641
1073.50,51.793
1074.00,51.893
1074.50,51.990
1075.00,52.059
1075.50,52.150
1076.00,52.282
1076.50,52.362
1077.00,52.473
1077.50,52.559
1078.00,52.698
1078.50,52.825
1079.00,52.885
1079.50,52.996
1080.00,53.120
1080.50,53.233
1081.00,53.313
1081.50,53.441
1082.00,53.573
1082.50,53.672
1083.00,53.762
1083.50,53.872
1084.00,54.012
1084.50,54.150
1085.00,54.217
1085.50,54.340
1086.00,54.494
1086.50,54.621
1087.00,54.728
1087.50,54.852
1088.00,55.035
1088.50,55.157
1089.00,55.251
1089.50,55.425
1090.00,55.516
1090.50,55.661
1091.00,55.835
1091.50,55.928
1092.00,56.044
1092.50,56.194
1093.00,56.318
1093.50,56.419
1094.00,56.551
1094.50,56.735
1095.00,56.894
1095.50,56.998
1096.00,57.148
1096.50,57.244
1097.00,57.369
1097.50,57.494
1098.00,57.585
1098.50,57.740
1099.00,57.864
1099.50,57.959
1100.00,58.060
1100.50,58.118
1101.00,58.212
1101.50,58.252
1102.00,58.305
1102.50,58.375
1103.00,58.400
1103.50,58.450
1104.00,58.511
1104.50,58.500
1105.00,58.546
1105.50,58.555
1106.00,58.570
1106.50,58.538
1107.00,58.528
1107.50,58.490
1108.00,58.483
1108.50,58.443
1109.00,58.376
1109.50,58.293
1110.00,58.210
1110.50,58.166
1111.00,58.104
1111.50,58.020
1112.00,57.935
1112.50,57.791
1113.00,57.720
1113.50,57.549
1114.00,57.496
1114.50,57.384
1115.00,57.283
1115.50,57.164
1116.00,57.083
1116.50,56.982
1117.00,56.937
1117.50,56.850
1118.00,56.806
1118.50,56.791
1119.00,56.812
1119.50,56.804
1120.00,56.838
1120.50,56.887
1121.00,56.953
1121.50,57.025
1122.00,57.130
1122.50,57.253
1123.00,57.392
1123.50,57.541
1124.00,57.722
1124.50,57.878
1125.00,58.104
1125.50,58.297
1126.00,58.550
1126.50,58.813
1127.00,59.068
1127.50,59.285
1128.00,59.519
1128.50,59.773
1129.00,59.999
1129.50,60.227
1130.00,60.438
1130.50,60.727
1131.00,60.981
1131.50,61.197
1132.00,61.420
1132.50,61.674
1133.00,61.880
1133.50,62.139
1134.00,62.353
1134.50,62.565
1135.00,62.827
1135.50,63.016
1136.00,63.265
1136.50,63.481
1137.00,63.665
1137.50,63.855
1138.00,64.011
1138.50,64.264
1139.00,64.463
1139.50,64.698
1140.00,64.847
1140.50,65.066
1141.00,65.241
1141.50,65.427
1142.00,65.586
1142.50,65.830
1143.00,65.989
1143.50,66.127
1144.00,66.327
1144.50,66.484
1145.00,66.678
1145.50,66.818
1146.00,66.970
1146.50,67.155
1147.00,67.324
1147.50,67.492
1148.00,67.614
1148.50,67.789
1149.00,67.892
1149.50,68.071
1150.00,68.177
1150.50,68.362
1151.00,68.474
1151.50,68.616
1152.00,68.705
1152.50,68.892
1153.00,69.007
1153.50,69.121
1154.00,69.277
1154.50,69.376
1155.00,69.494
1155.50,69.581
1156.00,69.745
1156.50,69.898
1157.00,69.984
1157.50,70.065
1158.00,70.210
1158.50,70.309
1159.00,70.394
1159.50,70.515
1160.00,70.594
1160.50,70.723
1161.00,70.823
1161.50,70.912
1162.00,70.999
1162.50,71.051
1163.00,71.177
1163.50,71.282
1164.00,71.351
1164.50,71.445
1165.00,71.530
1165.50,71.610
1166.00,71.743
1166.50,71.764
1167.00,71.879
1167.50,71.976
1168.00,71.997
1168.50,72.092
1169.00,72.123
1169.50,72.191
1170.00,72.311
1170.50,72.362
1171.00,72.431
1171.50,72.520
1172.00,72.546
1172.50,72.649
1173.00,72.703
1173.50,72.774
1174.00,72.857
1174.50,72.944
1175.00,73.009
1175.50,73.055
1176.00,73.136
1176.50,73.196
1177.00,73.220
1177.50,73.274
1178.00,73.368
1178.50,73.415
1179.00,73.476
1179.50,73.547
1180.00,73.626
1180.50,73.688
1181.00,73.729
1181.50,73.807
1182.00,73.848
1182.50,73.922
1183.00,73.984
1183.50,74.005
1184.00,74.087
1184.50,74.155
1185.00,74.196
1185.50,74.294
1186.00,74.297
1186.50,74.368
1187.00,74.447
1187.50,74.465
1188.00,74.541
1188.50,74.583
1189.00,74.660
1189.50,74.711
1190.00,74.695
1190.50,74.790
1191.00,74.831
1191.50,74.908
1192.00,74.904
1192.50,74.964
1193.00,75.033
1193.50,75.056
1194.00,75.095
1194.50,75.171
1195.00,75.191
1195.50,75.244
1196.00,75.291
1196.50,75.368
1197.00,75.383
1197.50,75.443
1198.00,75.480
1198.50,75.499
1199.00,75.565
1199.50,75.615
1200.00,75.632
1200.50,75.634
1201.00,75.742
1201.50,75.739
1202.00,75.771
1202.50,75.894
1203.00,75.859
1203.50,75.932
1204.00,75.958
1204.50,75.993
1205.00,75.993
1205.50,76.031
1206.00,76.072
1206.50,76.108
1207.00,76.163
1207.50,76.195
1208.00,76.172
1208.50,76.243
1209.00,76.286
1209.50,76.288
1210.00,76.346
1210.50,76.397
1211.00,76.402
1211.50,76.429
1212.00,76.436
1212.50,76.475
1213.00,76.499
1213.50,76.571
1214.00,76.575
1214.50,76.604
1215.00,76.625
1215.50,76.606
1216.00,76.675
1216.50,76.667
1217.00,76.659
1217.50,76.691
1218.00,76.747
1218.50,76.756
1219.00,76.785
1219.50,76.810
1220.00,76.848
1220.50,76.848
1221.00,76.903
1221.50,76.882
1222.00,76.941
1222.50,76.935
1223.00,76.967
1223.50,77.005
1224.00,76.999
1224.50,77.037
1225.00,76.990
1225.50,77.035
1226.00,77.083
1226.50,77.120
1227.00,77.088
1227.50,77.123
1228.00,77.141
1228.50,77.131
1229.00,77.185
1229.50,77.198
1230.00,77.218
1230.50,77.258
1231.00,77.308
1231.50,77.275
1232.00,77.301
1232.50,77.351
1233.00,77.356
1233.50,77.360
1234.00,77.438
1234.50,77.388
1235.00,77.419
1235.50,77.446
1236.00,77.479
1236.50,77.500
1237.00,77.475
1237.50,77.518
1238.00,77.496
1238.50,77.534
1239.00,77.557
1239.50,77.602
1240.00,77.603
1240.50,77.572
1241.00,77.557
1241.50,77.603
1242.00,77.583
1242.50,77.615
1243.00,77.639
1243.50,77.623
1244.00,77.596
1244.50,77.620
1245.00,77.642
1245.50,77.629
1246.00,77.636
1246.50,77.678
1247.00,77.667
1247.50,77.686
1248.00,77.716
1248.50,77.733
1249.00,77.701
1249.50,77.770
1250.00,77.727
1250.50,77.784
1251.00,77.768
1251.50,77.762
1252.00,77.772
1252.50,77.785
1253.00,77.837
1253.50,77.834
1254.00,77.860
1254.50,77.880
1255.00,77.903
1255.50,77.928
1256.00,77.929
1256.50,77.957
1257.00,77.960
1257.50,77.992
1258.00,78.004
1258.50,78.008
1259.00,77.986
1259.50,78.015
1260.00,78.056
1260.50,78.070
1261.00,78.081
1261.50,78.111
1262.00,78.127
1262.50,78.120
1263.00,78.109
1263.50,78.157
1264.00,78.207
1264.50,78.181
1265.00,78.221
1265.50,78.176
1266.00,78.260
1266.50,78.235
1267.00,78.257
1267.50,78.275
1268.00,78.285
1268.50,78.287
1269.00,78.312
1269.50,78.330
1270.00,78.354
1270.50,78.381
1271.00,78.409
1271.50,78.398
1272.00,78.352
1272.50,78.422
1273.00,78.417
1273.50,78.445
1274.00,78.452
1274.50,78.433
1275.00,78.470
1275.50,78.492
1276.00,78.498
1276.50,78.483
1277.00,78.502
1277.50,78.494
1278.00,78.524
1278.50,78.551
1279.00,78.603
1279.50,78.594
1280.00,78.637
1280.50,78.606
1281.00,78.588
1281.50,78.642
1282.00,78.657
1282.50,78.618
1283.00,78.625
1283.50,78.628
1284.00,78.676
1284.50,78.662
1285.00,78.683
1285.50,78.665
1286.00,78.727
1286.50,78.718
1287.00,78.739
1287.50,78.743
1288.00,78.781
1288.50,78.796
1289.00,78.769
1289.50,78.790
1290.00,78.790
1290.50,78.795
1291.00,78.852
1291.50,78.809
1292.00,78.831
1292.50,78.863
1293.00,78.877
1293.50,78.864
1294.00,78.902
1294.50,78.912
1295.00,78.875
1295.50,78.927
1296.00,78.937
1296.50,78.929
1297.00,78.969
1297.50,78.946
1298.00,78.959
1298.50,78.957
1299.00,79.015
1299.50,78.978
1300.00,78.975
1300.50,79.058
1301.00,79.058
1301.50,79.016
1302.00,79.027
1302.50,79.015
1303.00,79.019
1303.50,79.030
1304.00,79.062
1304.50,79.067
1305.00,79.088
1305.50,79.134
1306.00,79.052
1306.50,79.107
1307.00,79.122
1307.50,79.100
1308.00,79.092
1308.50,79.134
1309.00,79.137
1309.50,79.173
1310.00,79.160
1310.50,79.152
1311.00,79.145
1311.50,79.135
1312.00,79.137
1312.50,79.156
1313.00,79.154
1313.50,79.195
1314.00,79.171
1314.50,79.208
1315.00,79.204
1315.50,79.240
1316.00,79.245
1316.50,79.209
1317.00,79.251
1317.50,79.216
1318.00,79.220
1318.50,79.252
1319.00,79.287
1319.50,79.280
1320.00,79.267
1320.50,79.347
1321.00,79.313
1321.50,79.342
1322.00,79.328
1322.50,79.378
1323.00,79.391
1323.50,79.373
1324.00,79.384
1324.50,79.382
1325.00,79.424
1325.50,79.384
1326.00,79.429
1326.50,79.416
1327.00,79.445
1327.50,79.431
1328.00,79.425
1328.50,79.436
1329.00,79.468
1329.50,79.400
1330.00,79.476
1330.50,79.449
1331.00,79.442
1331.50,79.452
1332.00,79.422
1332.50,79.443
1333.00,79.488
1333.50,79.487
1334.00,79.489
1334.50,79.467
1335.00,79.475
1335.50,79.482
1336.00,79.462
1336.50,79.512
1337.00,79.511
1337.50,79.482
1338.00,79.482
1338.50,79.508
1339.00,79.486
1339.50,79.528
1340.00,79.498
1340.50,79.496
1341.00,79.491
1341.50,79.475
1342.00,79.477
1342.50,79.511
1343.00,79.526
1343.50,79.536
1344.00,79.503
1344.50,79.495
1345.00,79.540
1345.50,79.505
1346.00,79.555
1346.50,79.537
1347.00,79.560
1347.50,79.618
1348.00,79.547
1348.50,79.569
1349.00,79.549
1349.50,79.587
1350.00,79.660
1350.50,79.593
1351.00,79.617
1351.50,79.692
1352.00,79.581
1352.50,79.565
1353.00,79.591
1353.50,79.630
1354.00,79.546
1354.50,79.794
1355.00,79.602
1355.50,79.773
1356.00,79.562
1356.50,79.507
1357.00,79.806
1357.50,79.652
1358.00,79.660
1358.50,79.777
1359.00,79.488
1359.50,79.894
1360.00,79.622
1360.50,79.577
1361.00,79.496
1361.50,79.785
1362.00,79.948
1362.50,79.710
1363.00,79.668
1363.50,79.642
1364.00,79.417
1364.50,80.077
1365.00,79.992
1365.50,79.476
1366.00,79.715
1366.50,79.889
1367.00,79.626
1367.50,80.075
1368.00,79.440
1368.50,79.775
1369.00,79.708
1369.50,79.926
1370.00,79.699
1370.50,80.140
1371.00,79.280
1371.50,79.547
1372.00,80.104
1372.50,79.592
1373.00,79.792
1373.50,79.654
1374.00,79.814
1374.50,79.693
1375.00,79.569
1375.50,79.848
1376.00,79.757
1376.50,80.023
1377.00,79.717
1377.50,79.703
1378.00,79.784
1378.50,80.034
1379.00,79.479
1379.50,79.748
1380.00,79.791
1380.50,80.215
1381.00,79.559
1381.50,79.774
1382.00,79.901
1382.50,79.833
1383.00,79.435
1383.50,79.858
1384.00,79.791
1384.50,79.952
1385.00,79.830
1385.50,79.875
1386.00,79.890
1386.50,79.912
1387.00,79.905
1387.50,79.701
1388.00,80.068
1388.50,79.964
1389.00,79.927
1389.50,79.834
1390.00,79.993
1390.50,79.832
1391.00,79.902
1391.50,79.667
1392.00,79.809
1392.50,80.333
1393.00,79.931
1393.50,79.881
1394.00,79.825
1394.50,79.893
1395.00,79.999
1395.50,80.036
1396.00,79.802
1396.50,79.999
1397.00,79.849
1397.50,79.960
1398.00,79.940
1398.50,79.937
1399.00,79.849
1399.50,80.132
1400.00,79.924
1400.50,80.066
1401.00,79.835
1401.50,80.091
1402.00,79.915
1402.50,79.945
1403.00,79.980
1403.50,79.957
1404.00,79.986
1404.50,79.849
1405.00,80.301
1405.50,79.747
1406.00,79.991
1406.50,79.992
1407.00,80.134
1407.50,80.059
1408.00,79.942
1408.50,79.942
1409.00,79.991
1409.50,80.113
1410.00,79.865
1410.50,79.967
1411.00,79.984
1411.50,79.933
1412.00,80.036
1412.50,79.957
1413.00,80.013
1413.50,80.002
1414.00,80.107
1414.50,80.005
1415.00,79.964
1415.50,79.966
1416.00,79.972
1416.50,80.001
1417.00,80.043
1417.50,79.976
1418.00,80.068
1418.50,80.043
1419.00,79.985
1419.50,80.008
1420.00,80.009
1420.50,80.028
1421.00,80.073
1421.50,80.034
1422.00,80.063
1422.50,80.037
1423.00,80.067
1423.50,80.048
1424.00,80.123
1424.50,80.084
1425.00,80.079
1425.50,80.102
1426.00,80.045
1426.50,80.101
1427.00,80.126
1427.50,80.096
1428.00,80.127
1428.50,80.075
1429.00,80.120
1429.50,80.084
1430.00,80.083
1430.50,80.060
1431.00,80.103
1431.50,80.119
1432.00,80.104
1432.50,80.113
1433.00,80.077
1433.50,80.123
1434.00,80.122
1434.50,80.025
1435.00,80.154
1435.50,80.095
1436.00,80.161
1436.50,80.076
1437.00,80.086
1437.50,80.191
1438.00,80.049
1438.50,80.124
1439.00,80.054
1439.50,80.105
1440.00,80.080
1440.50,80.089
1441.00,80.089
1441.50,80.122
1442.00,80.056
1442.50,80.070
1443.00,80.114
1443.50,80.075
1444.00,80.068
1444.50,80.081
1445.00,80.041
1445.50,80.285
1446.00,79.994
1446.50,80.095
1447.00,80.098
1447.50,80.128
1448.00,80.114
1448.50,80.102
1449.00,80.095
1449.50,80.047
1450.00,80.077
1450.50,80.122
1451.00,80.079
1451.50,80.158
1452.00,80.113
1452.50,80.108
1453.00,80.151
1453.50,80.117
1454.00,80.077
1454.50,80.170
1455.00,80.212
1455.50,80.176
1456.00,80.171
1456.50,80.155
1457.00,80.163
1457.50,80.148
1458.00,80.161
1458.50,80.155
1459.00,80.160
1459.50,80.160
1460.00,80.154
1460.50,80.198
1461.00,80.141
1461.50,80.190
1462.00,80.180
1462.50,80.221
1463.00,80.145
1463.50,80.190
1464.00,80.182
1464.50,80.176
1465.00,80.175
1465.50,80.194
1466.00,80.164
1466.50,80.181
1467.00,80.178
1467.50,80.179
1468.00,80.216
1468.50,80.171
1469.00,80.173
1469.50,80.113
1470.00,80.266
1470.50,80.147
1471.00,80.259
1471.50,80.173
1472.00,80.215
1472.50,80.276
1473.00,80.154
1473.50,80.171
1474.00,80.162
1474.50,80.160
1475.00,80.135
1475.50,80.159
1476.00,80.198
1476.50,80.188
1477.00,80.217
1477.50,80.130
1478.00,80.225
1478.50,80.130
1479.00,80.135
1479.50,80.188
1480.00,80.184
1480.50,80.173
1481.00,80.154
1481.50,80.172
1482.00,80.195
1482.50,80.177
1483.00,80.183
1483.50,80.103
1484.00,80.156
1484.50,80.206
1485.00,80.180
1485.50,80.189
1486.00,80.188
1486.50,80.218
1487.00,80.166
1487.50,80.173
1488.00,80.197
1488.50,80.129
1489.00,80.222
1489.50,80.217
1490.00,80.152
1490.50,80.173
1491.00,80.231
1491.50,80.205
1492.00,80.181
1492.50,80.152
1493.00,80.175
1493.50,80.222
1494.00,80.261
1494.50,80.193
1495.00,80.236
1495.50,80.219
1496.00,80.215
1496.50,80.237
1497.00,80.225
1497.50,80.240
1498.00,80.203
1498.50,80.211
1499.00,80.272
1499.50,80.230
1500.00,80.274
1500.50,80.263
1501.00,80.224
1501.50,80.219
1502.00,80.209
1502.50,80.225
1503.00,80.198
1503.50,80.249
1504.00,80.241
1504.50,80.215
1505.00,80.232
1505.50,80.240
1506.00,80.214
1506.50,80.250
1507.00,80.239
1507.50,80.258
1508.00,80.251
1508.50,80.209
1509.00,80.203
1509.50,80.231
1510.00,80.261
1510.50,80.210
1511.00,80.219
1511.50,80.251
1512.00,80.238
1512.50,80.238
1513.00,80.278
1513.50,80.287
1514.00,80.249
1514.50,80.247
1515.00,80.260
1515.50,80.242
1516.00,80.218
1516.50,80.183
1517.00,80.217
1517.50,80.225
1518.00,80.226
1518.50,80.258
1519.00,80.229
1519.50,80.241
1520.00,80.211
1520.50,80.213
1521.00,80.303
1521.50,80.230
1522.00,80.238
1522.50,80.215
1523.00,80.229
1523.50,80.212
1524.00,80.162
1524.50,80.220
1525.00,80.208
1525.50,80.184
1526.00,80.243
1526.50,80.228
1527.00,80.203
1527.50,80.241
1528.00,80.266
1528.50,80.176
1529.00,80.240
1529.50,80.278
1530.00,80.240
1530.50,80.216
1531.00,80.225
1531.50,80.240
1532.00,80.247
1532.50,80.197
1533.00,80.222
1533.50,80.254
1534.00,80.250
1534.50,80.234
1535.00,80.262
1535.50,80.233
1536.00,80.185
1536.50,80.256
1537.00,80.281
1537.50,80.268
1538.00,80.266
1538.50,80.310
1539.00,80.269
1539.50,80.270
1540.00,80.272
1540.50,80.233
1541.00,80.253
1541.50,80.257
1542.00,80.322
1542.50,80.275
1543.00,80.304
1543.50,80.302
1544.00,80.274
1544.50,80.349
1545.00,80.325
1545.50,80.298
1546.00,80.289
1546.50,80.345
1547.00,80.335
1547.50,80.282
1548.00,80.294
1548.50,80.316
1549.00,80.274
1549.50,80.294
1550.00,80.309
1550.50,80.282
1551.00,80.283
1551.50,80.299
1552.00,80.293
1552.50,80.282
1553.00,80.289
1553.50,80.270
1554.00,80.228
1554.50,80.265
1555.00,80.285
1555.50,80.278
1556.00,80.313
1556.50,80.269
1557.00,80.270
1557.50,80.279
1558.00,80.286
1558.50,80.288
1559.00,80.265
1559.50,80.281
1560.00,80.281
1560.50,80.309
1561.00,80.259
1561.50,80.308
1562.00,80.328
1562.50,80.319
1563.00,80.306
1563.50,80.301
1564.00,80.334
1564.50,80.362
1565.00,80.304
1565.50,80.288
1566.00,80.338
1566.50,80.312
1567.00,80.339
1567.50,80.319
1568.00,80.296
1568.50,80.268
1569.00,80.325
1569.50,80.323
1570.00,80.332
1570.50,80.296
1571.00,80.284
1571.50,80.356
1572.00,80.347
1572.50,80.321
1573.00,80.347
1573.50,80.327
1574.00,80.293
1574.50,80.280
1575.00,80.317
1575.50,80.314
1576.00,80.315
1576.50,80.287
1577.00,80.381
1577.50,80.340
1578.00,80.318
1578.50,80.333
1579.00,80.347
1579.50,80.289
1580.00,80.343
1580.50,80.396
1581.00,80.354
1581.50,80.357
1582.00,80.377
1582.50,80.399
1583.00,80.373
1583.50,80.355
1584.00,80.372
1584.50,80.399
1585.00,80.382
1585.50,80.410
1586.00,80.366
1586.50,80.346
1587.00,80.348
1587.50,80.380
1588.00,80.420
1588.50,80.379
1589.00,80.332
1589.50,80.375
1590.00,80.358
1590.50,80.377
1591.00,80.393
1591.50,80.401
1592.00,80.380
1592.50,80.416
1593.00,80.436
1593.50,80.391
1594.00,80.410
1594.50,80.377
1595.00,80.423
1595.50,80.401
1596.00,80.406
1596.50,80.369
1597.00,80.367
1597.50,80.393
1598.00,80.397
1598.50,80.384
1599.00,80.500
1599.50,80.424
1600.00,80.452
