"sample_e - RawData"
"Wavelength nm.","T%"
200.00,0.035
200.50,0.056
201.00,0.235
201.50,0.190
202.00,0.010
202.50,0.092
203.00,-0.032
203.50,0.036
204.00,0.034
204.50,0.013
205.00,0.059
205.50,0.030
206.00,0.078
206.50,0.054
207.00,0.108
207.50,-0.100
208.00,-0.018
208.50,0.046
209.00,-0.007
209.50,-0.009
210.00,0.081
210.50,0.011
211.00,0.047
211.50,0.018
212.00,-0.016
212.50,0.035
213.00,0.009
213.50,0.012
214.00,0.026
214.50,-0.015
215.00,-0.020
215.50,0.026
216.00,-0.010
216.50,-0.012
217.00,0.031
217.50,0.036
218.00,0.042
218.50,0.008
219.00,0.013
219.50,-0.005
220.00,0.036
220.50,0.003
221.00,0.005
221.50,0.013
222.00,0.006
222.50,0.000
223.00,0.011
223.50,0.000
224.00,-0.000
224.50,0.017
225.00,-0.018
225.50,0.026
226.00,0.007
226.50,-0.026
227.00,0.005
227.50,0.009
228.00,-0.002
228.50,0.008
229.00,0.003
229.50,-0.001
230.00,0.004
230.50,0.003
231.00,-0.002
231.50,-0.000
232.00,0.011
232.50,-0.007
233.00,0.016
233.50,0.015
234.00,-0.009
234.50,0.003
235.00,0.006
235.50,0.019
236.00,0.002
236.50,0.011
237.00,-0.003
237.50,-0.006
238.00,0.014
238.50,0.007
239.00,0.003
239.50,0.004
240.00,-0.005
240.50,0.012
241.00,0.003
241.50,0.014
242.00,0.002
242.50,-0.005
243.00,-0.009
243.50,-0.003
244.00,-0.006
244.50,0.005
245.00,-0.003
245.50,0.009
246.00,0.012
246.50,-0.002
247.00,0.005
247.50,0.007
248.00,-0.002
248.50,0.010
249.00,0.007
249.50,-0.005
250.00,-0.002
250.50,0.008
251.00,0.001
251.50,0.009
252.00,0.005
252.50,-0.005
253.00,0.006
253.50,-0.004
254.00,-0.003
254.50,0.007
255.00,-0.003
255.50,-0.001
256.00,0.008
256.50,-0.001
257.00,0.011
257.50,-0.004
258.00,0.009
258.50,0.005
259.00,-0.003
259.50,0.009
260.00,0.006
260.50,0.013
261.00,-0.001
261.50,0.002
262.00,0.005
262.50,0.013
263.00,0.000
263.50,0.013
264.00,0.004
264.50,0.005
265.00,-0.000
265.50,-0.007
266.00,-0.008
266.50,0.006
267.00,0.003
267.50,0.014
268.00,-0.006
268.50,-0.003
269.00,0.007
269.50,0.006
270.00,-0.003
270.50,0.006
271.00,0.008
271.50,0.002
272.00,-0.004
272.50,0.009
273.00,-0.002
273.50,0.001
274.00,0.008
274.50,-0.003
275.00,-0.003
275.50,-0.001
276.00,-0.004
276.50,-0.011
277.00,0.005
277.50,0.008
278.00,-0.005
278.50,0.008
279.00,0.006
279.50,0.009
280.00,0.010
280.50,0.001
281.00,-0.000
281.50,0.001
282.00,0.013
282.50,-0.001
283.00,-0.004
283.50,0.002
284.00,0.005
284.50,0.005
285.00,0.000
285.50,-0.001
286.00,0.002
286.50,0.006
287.00,0.004
287.50,0.011
288.00,0.005
288.50,0.017
289.00,0.005
289.50,0.017
290.00,0.020
290.50,0.015
291.00,0.020
291.50,0.021
292.00,0.031
292.50,0.030
293.00,0.033
293.50,0.055
294.00,0.068
294.50,0.062
295.00,0.090
295.50,0.098
296.00,0.105
296.50,0.127
297.00,0.144
297.50,0.165
298.00,0.179
298.50,0.214
299.00,0.230
299.50,0.260
300.00,0.321
300.50,0.326
301.00,0.385
301.50,0.427
302.00,0.473
302.50,0.470
303.00,0.543
303.50,0.574
304.00,0.660
304.50,0.669
305.00,0.736
305.50,0.765
306.00,0.829
306.50,0.882
307.00,0.915
307.50,1.012
308.00,1.063
308.50,1.124
309.00,1.180
309.50,1.234
310.00,1.310
310.50,1.364
311.00,1.400
311.50,1.460
312.00,1.551
312.50,1.634
313.00,1.717
313.50,1.787
314.00,1.808
314.50,1.874
315.00,1.949
315.50,2.101
316.00,2.067
316.50,2.127
317.00,2.255
317.50,2.319
318.00,2.371
318.50,2.399
319.00,2.522
319.50,2.553
320.00,2.621
320.50,2.669
321.00,2.783
321.50,2.812
322.00,2.924
322.50,2.962
323.00,3.026
323.50,3.140
324.00,3.218
324.50,3.299
325.00,3.314
325.50,3.387
326.00,3.428
326.50,3.536
327.00,3.638
327.50,3.735
328.00,3.845
328.50,3.893
329.00,3.911
329.50,4.018
330.00,4.196
330.50,4.249
331.00,4.312
331.50,4.437
332.00,4.595
332.50,4.736
333.00,4.760
333.50,4.830
334.00,5.012
334.50,5.101
335.00,5.179
335.50,5.386
336.00,5.501
336.50,5.594
337.00,5.723
337.50,5.786
338.00,6.011
338.50,6.182
339.00,6.304
339.50,6.482
340.00,6.551
340.50,7.469
341.00,7.551
341.50,7.914
342.00,8.214
342.50,8.656
343.00,8.740
343.50,9.300
344.00,9.295
344.50,9.585
345.00,9.817
345.50,10.260
346.00,10.716
346.50,10.926
347.00,11.080
347.50,11.430
348.00,11.569
348.50,12.193
349.00,12.688
349.50,12.498
350.00,13.202
350.50,13.461
351.00,13.800
351.50,14.590
352.00,14.955
352.50,15.194
353.00,15.643
353.50,16.025
354.00,16.463
354.50,16.756
355.00,17.420
355.50,17.978
356.00,18.140
356.50,18.746
357.00,18.867
357.50,19.815
358.00,20.316
358.50,21.068
359.00,21.128
359.50,21.920
360.00,22.086
360.50,22.716
361.00,23.055
361.50,23.881
362.00,23.856
362.50,24.501
363.00,25.027
363.50,25.326
364.00,25.606
364.50,25.915
365.00,26.263
365.50,26.652
366.00,27.053
366.50,27.301
367.00,27.378
367.50,27.839
368.00,28.122
368.50,28.190
369.00,28.868
369.50,28.774
370.00,29.237
370.50,29.448
371.00,29.638
371.50,30.033
372.00,30.407
372.50,30.519
373.00,30.726
373.50,30.903
374.00,31.178
374.50,31.331
375.00,31.410
375.50,31.701
376.00,32.003
376.50,31.915
377.00,32.136
377.50,32.470
378.00,32.371
378.50,32.497
379.00,32.514
379.50,32.772
380.00,33.008
380.50,32.953
381.00,32.923
381.50,32.926
382.00,33.016
382.50,33.098
383.00,33.341
383.50,33.225
384.00,33.311
384.50,33.479
385.00,33.453
385.50,33.453
386.00,33.565
386.50,33.527
387.00,33.568
387.50,33.690
388.00,33.660
388.50,33.775
389.00,33.753
389.50,33.790
390.00,33.827
390.50,33.965
391.00,34.025
391.50,34.082
392.00,34.269
392.50,34.385
393.00,34.434
393.50,34.630
394.00,34.870
394.50,35.039
395.00,35.436
395.50,35.538
396.00,35.760
396.50,36.062
397.00,36.459
397.50,36.823
398.00,37.322
398.50,37.634
399.00,38.378
399.50,38.753
400.00,39.772
400.50,40.610
401.00,41.311
401.50,42.262
402.00,43.387
402.50,44.516
403.00,45.642
403.50,47.071
404.00,48.237
404.50,49.517
405.00,50.771
405.50,51.731
406.00,52.796
406.50,53.520
407.00,54.265
407.50,54.985
408.00,55.383
408.50,55.626
409.00,56.045
409.50,56.158
410.00,56.001
410.50,56.243
411.00,56.314
411.50,56.173
412.00,56.313
412.50,56.206
413.00,56.343
413.50,56.232
414.00,56.459
414.50,56.287
415.00,56.426
415.50,56.685
416.00,56.463
416.50,56.555
417.00,56.712
417.50,56.744
418.00,56.847
418.50,57.173
419.00,57.264
419.50,57.171
420.00,57.492
420.50,57.469
421.00,57.809
421.50,57.905
422.00,58.078
422.50,58.264
423.00,58.332
423.50,58.501
424.00,58.593
424.50,58.687
425.00,58.959
425.50,59.141
426.00,59.191
426.50,59.431
427.00,59.830
427.50,59.836
428.00,60.250
428.50,60.459
429.00,60.366
429.50,60.842
430.00,60.779
430.50,61.161
431.00,61.281
431.50,61.209
432.00,61.796
432.50,61.712
433.00,62.047
433.50,62.166
434.00,61.958
434.50,62.091
435.00,62.244
435.50,62.200
436.00,62.140
436.50,62.262
437.00,62.005
437.50,62.221
438.00,62.089
438.50,62.174
439.00,61.893
439.50,61.765
440.00,61.745
440.50,61.536
441.00,61.466
441.50,61.407
442.00,61.268
442.50,61.149
443.00,60.922
443.50,60.916
444.00,60.632
444.50,60.653
445.00,60.513
445.50,60.467
446.00,60.382
446.50,60.172
447.00,60.115
447.50,60.170
448.00,60.041
448.50,59.737
449.00,59.820
449.50,59.705
450.00,59.614
450.50,59.758
451.00,59.721
451.50,59.623
452.00,59.553
452.50,59.683
453.00,59.575
453.50,59.663
454.00,59.734
454.50,59.883
455.00,59.968
455.50,59.813
456.00,60.072
456.50,60.133
457.00,60.230
457.50,60.308
458.00,60.439
458.50,60.615
459.00,60.662
459.50,60.780
460.00,60.751
460.50,60.903
461.00,60.985
461.50,61.118
462.00,60.976
462.50,61.227
463.00,61.096
463.50,61.084
464.00,61.175
464.50,61.225
465.00,61.094
465.50,61.048
466.00,61.008
466.50,61.073
467.00,60.956
467.50,60.853
468.00,60.723
468.50,60.528
469.00,60.524
469.50,60.366
470.00,60.357
470.50,60.084
471.00,60.077
471.50,60.021
472.00,59.802
472.50,59.680
473.00,59.651
473.50,59.475
474.00,59.384
474.50,59.180
475.00,59.180
475.50,59.074
476.00,58.994
476.50,58.757
477.00,58.685
477.50,58.633
478.00,58.603
478.50,58.580
479.00,58.528
479.50,58.578
480.00,58.514
480.50,58.565
481.00,58.473
481.50,58.646
482.00,58.694
482.50,58.753
483.00,58.738
483.50,58.904
484.00,58.913
484.50,59.083
485.00,59.207
485.50,59.457
486.00,59.491
486.50,59.721
487.00,59.871
487.50,59.913
488.00,60.062
488.50,60.389
489.00,60.436
489.50,60.585
490.00,60.814
490.50,60.989
491.00,61.177
491.50,61.379
492.00,61.463
492.50,61.612
493.00,61.801
493.50,61.959
494.00,62.149
494.50,62.226
495.00,62.258
495.50,62.530
496.00,62.567
496.50,62.783
497.00,62.823
497.50,62.831
498.00,62.884
498.50,62.934
499.00,63.140
499.50,63.088
500.00,63.209
500.50,63.142
501.00,63.296
501.50,63.275
502.00,63.404
502.50,63.501
503.00,63.522
503.50,63.493
504.00,63.681
504.50,63.530
505.00,63.874
505.50,63.772
506.00,63.795
506.50,64.023
507.00,63.964
507.50,63.949
508.00,64.188
508.50,64.233
509.00,64.261
509.50,64.442
510.00,64.578
510.50,64.692
511.00,64.682
511.50,64.897
512.00,65.078
512.50,65.237
513.00,65.487
513.50,65.624
514.00,65.797
514.50,66.062
515.00,66.291
515.50,66.395
516.00,66.908
516.50,67.075
517.00,67.268
517.50,67.591
518.00,67.791
518.50,68.183
519.00,68.413
519.50,68.848
520.00,69.156
520.50,69.506
521.00,69.880
521.50,70.008
522.00,70.379
522.50,70.692
523.00,71.299
523.50,71.367
524.00,71.990
524.50,72.406
525.00,72.457
525.50,72.833
526.00,73.082
526.50,73.409
527.00,73.804
527.50,74.025
528.00,74.233
528.50,74.513
529.00,74.635
529.50,74.839
530.00,74.827
530.50,74.900
531.00,75.080
531.50,75.131
532.00,74.976
532.50,74.960
533.00,74.792
533.50,74.683
534.00,74.511
534.50,74.457
535.00,74.181
535.50,73.850
536.00,73.648
536.50,73.164
537.00,72.888
537.50,72.642
538.00,72.294
538.50,71.845
539.00,71.372
539.50,71.133
540.00,70.711
540.50,70.134
541.00,69.770
541.50,69.409
542.00,68.973
542.50,68.466
543.00,68.160
543.50,67.694
544.00,67.024
544.50,66.779
545.00,66.432
545.50,65.876
546.00,65.530
546.50,65.150
547.00,64.702
547.50,64.276
548.00,64.035
548.50,63.714
549.00,63.470
549.50,63.077
550.00,62.595
550.50,62.250
551.00,62.083
551.50,61.718
552.00,61.522
552.50,61.156
553.00,60.807
553.50,60.595
554.00,60.238
554.50,60.030
555.00,59.761
555.50,59.746
556.00,59.427
556.50,59.199
557.00,59.028
557.50,58.937
558.00,58.802
558.50,58.690
559.00,58.445
559.50,58.525
560.00,58.205
560.50,58.185
561.00,58.169
561.50,57.990
562.00,57.920
562.50,57.910
563.00,57.822
563.50,57.885
564.00,57.884
564.50,57.829
565.00,57.933
565.50,58.025
566.00,57.922
566.50,58.059
567.00,58.024
567.50,58.145
568.00,58.218
568.50,58.292
569.00,58.423
569.50,58.528
570.00,58.578
570.50,58.752
571.00,58.932
571.50,59.107
572.00,59.219
572.50,59.367
573.00,59.477
573.50,59.553
574.00,59.851
574.50,59.965
575.00,60.069
575.50,60.079
576.00,60.298
576.50,60.486
577.00,60.477
577.50,60.581
578.00,60.809
578.50,60.797
579.00,60.996
579.50,61.009
580.00,61.112
580.50,61.173
581.00,61.180
581.50,61.270
582.00,61.255
582.50,61.266
583.00,61.221
583.50,61.169
584.00,61.133
584.50,61.091
585.00,61.064
585.50,61.117
586.00,60.987
586.50,61.012
587.00,60.818
587.50,60.858
588.00,60.733
588.50,60.710
589.00,60.671
589.50,60.586
590.00,60.331
590.50,60.316
591.00,60.245
591.50,60.135
592.00,60.085
592.50,59.914
593.00,59.764
593.50,59.913
594.00,59.863
594.50,59.717
595.00,59.590
595.50,59.665
596.00,59.503
596.50,59.467
597.00,59.484
597.50,59.461
598.00,59.441
598.50,59.398
599.00,59.294
599.50,59.304
600.00,59.314
600.50,59.351
601.00,59.223
601.50,59.301
602.00,59.322
602.50,59.321
603.00,59.349
603.50,59.255
604.00,59.266
604.50,59.319
605.00,59.379
605.50,59.400
606.00,59.474
606.50,59.478
607.00,59.574
607.50,59.626
608.00,59.620
608.50,59.720
609.00,59.876
609.50,59.905
610.00,59.866
610.50,59.999
611.00,60.084
611.50,60.141
612.00,60.277
612.50,60.312
613.00,60.423
613.50,60.574
614.00,60.567
614.50,60.712
615.00,60.692
615.50,60.866
616.00,61.032
616.50,61.074
617.00,61.229
617.50,61.383
618.00,61.395
618.50,61.535
619.00,61.635
619.50,61.772
620.00,61.849
620.50,62.008
621.00,62.132
621.50,62.262
622.00,62.300
622.50,62.500
623.00,62.562
623.50,62.604
624.00,62.835
624.50,62.796
625.00,63.034
625.50,63.029
626.00,63.308
626.50,63.285
627.00,63.334
627.50,63.513
628.00,63.643
628.50,63.758
629.00,63.737
629.50,63.683
630.00,64.010
630.50,63.842
631.00,63.954
631.50,64.192
632.00,64.093
632.50,64.117
633.00,64.181
633.50,64.260
634.00,64.251
634.50,64.127
635.00,64.171
635.50,64.110
636.00,64.197
636.50,64.096
637.00,64.168
637.50,64.044
638.00,64.032
638.50,63.936
639.00,63.901
639.50,63.922
640.00,63.770
640.50,63.671
641.00,63.635
641.50,63.549
642.00,63.511
642.50,63.463
643.00,63.489
643.50,63.240
644.00,63.198
644.50,63.116
645.00,63.034
645.50,63.008
646.00,62.792
646.50,62.891
647.00,62.695
647.50,62.558
648.00,62.636
648.50,62.622
649.00,62.410
649.50,62.250
650.00,62.235
650.50,62.157
651.00,62.082
651.50,61.981
652.00,62.023
652.50,61.865
653.00,61.858
653.50,61.798
654.00,61.818
654.50,61.956
655.00,61.767
655.50,61.750
656.00,61.612
656.50,61.688
657.00,61.586
657.50,61.698
658.00,61.594
658.50,61.563
659.00,61.558
659.50,61.634
660.00,61.623
660.50,61.618
661.00,61.611
661.50,61.641
662.00,61.583
662.50,61.719
663.00,61.586
663.50,61.637
664.00,61.674
664.50,61.621
665.00,61.682
665.50,61.665
666.00,61.692
666.50,61.848
667.00,61.817
667.50,61.840
668.00,61.862
668.50,61.973
669.00,62.057
669.50,61.963
670.00,62.093
670.50,62.138
671.00,62.137
671.50,62.276
672.00,62.269
672.50,62.369
673.00,62.384
673.50,62.512
674.00,62.398
674.50,62.479
675.00,62.625
675.50,62.788
676.00,62.985
676.50,62.933
677.00,62.974
677.50,63.115
678.00,63.046
678.50,63.217
679.00,63.370
679.50,63.231
680.00,63.492
680.50,63.620
681.00,63.495
681.50,63.955
682.00,63.934
682.50,63.940
683.00,64.319
683.50,64.283
684.00,64.402
684.50,64.430
685.00,64.455
685.50,64.513
686.00,64.621
686.50,64.694
687.00,65.099
687.50,65.075
688.00,65.126
688.50,65.258
689.00,65.424
689.50,65.465
690.00,65.566
690.50,65.750
691.00,65.657
691.50,65.996
692.00,65.769
692.50,65.983
693.00,66.056
693.50,66.136
694.00,66.188
694.50,66.282
695.00,66.356
695.50,66.320
696.00,66.403
696.50,66.458
697.00,66.413
697.50,66.340
698.00,66.496
698.50,66.303
699.00,66.292
699.50,66.408
700.00,66.527
700.50,66.181
701.00,66.186
701.50,66.169
702.00,66.239
702.50,65.935
703.00,65.824
703.50,65.794
704.00,65.586
704.50,65.783
705.00,65.540
705.50,65.132
706.00,65.177
706.50,64.965
707.00,64.783
707.50,64.719
708.00,64.375
708.50,64.158
709.00,64.203
709.50,64.006
710.00,63.631
710.50,63.535
711.00,63.283
711.50,63.090
712.00,62.970
712.50,62.748
713.00,62.622
713.50,62.435
714.00,62.136
714.50,61.866
715.00,61.774
715.50,61.562
716.00,61.354
716.50,61.370
717.00,61.145
717.50,60.940
718.00,60.745
718.50,60.391
719.00,60.198
719.50,60.202
720.00,60.092
720.50,59.901
721.00,59.521
721.50,59.655
722.00,59.409
722.50,59.256
723.00,59.005
723.50,58.852
724.00,58.617
724.50,58.652
725.00,58.565
725.50,58.529
726.00,58.388
726.50,58.087
727.00,58.181
727.50,57.900
728.00,57.750
728.50,57.704
729.00,57.595
729.50,57.467
730.00,57.481
730.50,57.310
731.00,57.117
731.50,57.070
732.00,57.020
732.50,56.970
733.00,56.955
733.50,56.657
734.00,56.596
734.50,56.629
735.00,56.546
735.50,56.355
736.00,56.362
736.50,56.349
737.00,56.414
737.50,56.326
738.00,55.943
738.50,56.109
739.00,55.984
739.50,55.977
740.00,55.831
740.50,56.137
741.00,55.836
741.50,55.827
742.00,55.569
742.50,55.673
743.00,55.583
743.50,55.462
744.00,55.657
744.50,55.299
745.00,55.423
745.50,55.343
746.00,55.250
746.50,55.184
747.00,55.264
747.50,55.266
748.00,55.315
748.50,55.348
749.00,55.467
749.50,55.042
750.00,55.222
750.50,55.304
751.00,55.288
751.50,55.339
752.00,55.169
752.50,55.396
753.00,55.334
753.50,55.263
754.00,55.311
754.50,55.108
755.00,55.250
755.50,55.427
756.00,55.446
756.50,55.437
757.00,55.518
757.50,55.523
758.00,55.646
758.50,55.452
759.00,55.390
759.50,55.554
760.00,55.691
760.50,55.681
761.00,55.693
761.50,55.829
762.00,55.950
762.50,55.927
763.00,55.594
763.50,55.950
764.00,56.073
764.50,56.061
765.00,56.360
765.50,56.227
766.00,56.552
766.50,56.442
767.00,56.505
767.50,56.473
768.00,56.757
768.50,56.739
769.00,56.918
769.50,56.889
770.00,57.007
770.50,57.113
771.00,57.225
771.50,57.190
772.00,57.155
772.50,57.267
773.00,57.416
773.50,57.545
774.00,57.436
774.50,57.671
775.00,57.833
775.50,57.923
776.00,58.225
776.50,58.002
777.00,57.954
777.50,57.977
778.00,58.225
778.50,58.139
779.00,58.099
779.50,58.402
780.00,58.320
780.50,58.448
781.00,58.358
781.50,58.565
782.00,58.428
782.50,58.436
783.00,57.856
783.50,58.542
784.00,58.320
784.50,58.123
785.00,58.087
785.50,58.103
786.00,58.115
786.50,58.011
787.00,57.953
787.50,57.800
788.00,57.721
788.50,57.404
789.00,57.385
789.50,57.033
790.00,57.038
790.50,57.292
791.00,56.474
791.50,56.755
792.00,56.938
792.50,56.611
793.00,56.256
793.50,56.272
794.00,56.097
794.50,55.731
795.00,55.627
795.50,55.531
796.00,55.643
796.50,55.118
797.00,54.887
797.50,54.912
798.00,54.847
798.50,54.421
799.00,54.113
799.50,54.162
800.00,53.710
800.50,53.719
801.00,53.883
801.50,53.420
802.00,53.360
802.50,53.097
803.00,52.999
803.50,53.019
804.00,52.593
804.50,52.477
805.00,52.205
805.50,52.013
806.00,51.889
806.50,51.740
807.00,51.700
807.50,51.210
808.00,51.262
808.50,50.979
809.00,50.839
809.50,50.550
810.00,50.658
810.50,50.812
811.00,50.161
811.50,50.159
812.00,50.001
812.50,50.250
813.00,49.962
813.50,49.174
814.00,48.975
814.50,49.169
815.00,49.001
815.50,49.000
816.00,48.918
816.50,48.129
817.00,47.996
817.50,48.120
818.00,47.626
818.50,48.076
819.00,47.586
819.50,47.680
820.00,47.522
820.50,47.223
821.00,46.936
821.50,47.011
822.00,46.920
822.50,46.620
823.00,46.414
823.50,46.137
824.00,46.373
824.50,46.353
825.00,46.090
825.50,45.936
826.00,45.797
826.50,45.678
827.00,45.299
827.50,45.467
828.00,45.580
828.50,45.078
829.00,44.914
829.50,45.192
830.00,44.687
830.50,44.892
831.00,44.584
831.50,44.638
832.00,44.377
832.50,44.097
833.00,44.413
833.50,44.024
834.00,44.136
834.50,43.707
835.00,43.790
835.50,43.814
836.00,43.438
836.50,43.336
837.00,43.568
837.50,43.213
838.00,43.457
838.50,43.327
839.00,42.929
839.50,43.017
840.00,42.869
840.50,42.761
841.00,42.577
841.50,42.958
842.00,42.639
842.50,42.630
843.00,42.502
843.50,42.596
844.00,42.345
844.50,42.334
845.00,42.298
845.50,41.981
846.00,42.224
846.50,42.006
847.00,41.720
847.50,42.591
848.00,42.126
848.50,42.192
849.00,41.811
849.50,41.541
850.00,41.682
850.50,41.663
851.00,41.534
851.50,41.800
852.00,41.939
852.50,41.957
853.00,41.881
853.50,42.044
854.00,41.542
854.50,41.977
855.00,41.574
855.50,42.208
856.00,42.036
856.50,41.975
857.00,41.925
857.50,41.494
858.00,42.232
858.50,41.627
859.00,42.150
859.50,41.990
860.00,42.018
860.50,42.155
861.00,42.385
861.50,42.315
862.00,42.499
862.50,42.479
863.00,42.727
863.50,43.055
864.00,42.800
864.50,42.965
865.00,43.092
865.50,42.764
866.00,43.147
866.50,43.151
867.00,43.039
867.50,43.308
868.00,43.611
868.50,43.812
869.00,44.130
869.50,43.401
870.00,44.042
870.50,44.419
871.00,44.151
871.50,44.578
872.00,43.928
872.50,44.877
873.00,45.026
873.50,44.221
874.00,44.487
874.50,44.847
875.00,45.766
875.50,44.986
876.00,45.717
876.50,45.350
877.00,44.867
877.50,45.419
878.00,44.734
878.50,45.364
879.00,45.037
879.50,45.355
880.00,45.704
880.50,45.609
881.00,45.618
881.50,45.268
882.00,45.300
882.50,46.379
883.00,45.605
883.50,45.092
884.00,44.901
884.50,45.100
885.00,45.599
885.50,45.086
886.00,45.618
886.50,43.911
887.00,44.467
887.50,44.549
888.00,45.174
888.50,44.399
889.00,44.799
889.50,44.390
890.00,44.176
890.50,44.838
891.00,44.221
891.50,44.092
892.00,42.079
892.50,42.794
893.00,43.224
893.50,43.318
894.00,42.883
894.50,42.783
895.00,41.214
895.50,42.131
896.00,42.448
896.50,41.064
897.00,41.103
897.50,38.996
898.00,38.667
898.50,40.212
899.00,42.052
899.50,40.962
900.00,41.071
900.50,40.338
901.00,40.159
901.50,39.796
902.00,39.710
902.50,39.294
903.00,39.086
903.50,38.999
904.00,38.732
904.50,38.355
905.00,38.200
905.50,37.995
906.00,37.679
906.50,37.503
907.00,37.279
907.50,37.043
908.00,36.864
908.50,36.640
909.00,36.426
909.50,36.032
910.00,35.964
910.50,35.787
911.00,35.507
911.50,35.369
912.00,35.129
912.50,34.981
913.00,34.907
913.50,34.588
914.00,34.391
914.50,34.302
915.00,34.159
915.50,33.908
916.00,33.909
916.50,33.701
917.00,33.567
917.50,33.477
918.00,33.342
918.50,33.171
919.00,33.106
919.50,32.959
920.00,32.831
920.50,32.657
921.00,32.586
921.50,32.469
922.00,32.399
922.50,32.315
923.00,32.212
923.50,32.038
924.00,32.030
924.50,31.857
925.00,31.846
925.50,31.757
926.00,31.625
926.50,31.618
927.00,31.539
927.50,31.421
928.00,31.454
928.50,31.323
929.00,31.187
929.50,31.151
930.00,31.128
930.50,31.134
931.00,31.007
931.50,30.995
932.00,30.961
932.50,30.845
933.00,30.786
933.50,30.770
934.00,30.779
934.50,30.700
935.00,30.600
935.50,30.567
936.00,30.591
936.50,30.560
937.00,30.451
937.50,30.444
938.00,30.389
938.50,30.375
939.00,30.319
939.50,30.308
940.00,30.245
940.50,30.269
941.00,30.212
941.50,30.201
942.00,30.192
942.50,30.142
943.00,30.110
943.50,30.083
944.00,30.107
944.50,30.012
945.00,30.001
945.50,30.025
946.00,30.024
946.50,29.969
947.00,29.945
947.50,30.007
948.00,29.898
948.50,29.967
949.00,29.938
949.50,29.908
950.00,29.881
950.50,29.908
951.00,29.854
951.50,29.860
952.00,29.835
952.50,29.815
953.00,29.841
953.50,29.819
954.00,29.834
954.50,29.831
955.00,29.862
955.50,29.790
956.00,29.827
956.50,29.785
957.00,29.835
957.50,29.794
958.00,29.793
958.50,29.844
959.00,29.825
959.50,29.817
960.00,29.801
960.50,29.810
961.00,29.854
961.50,29.874
962.00,29.829
962.50,29.821
963.00,29.866
963.50,29.836
964.00,29.905
964.50,29.863
965.00,29.885
965.50,29.929
966.00,29.920
966.50,29.918
967.00,29.932
967.50,29.894
968.00,29.940
968.50,29.970
969.00,29.955
969.50,30.001
970.00,29.998
970.50,29.982
971.00,29.999
971.50,30.001
972.00,30.047
972.50,30.043
973.00,30.066
973.50,30.054
974.00,30.110
974.50,30.090
975.00,30.103
975.50,30.150
976.00,30.129
976.50,30.184
977.00,30.188
977.50,30.169
978.00,30.253
978.50,30.233
979.00,30.247
979.50,30.277
980.00,30.289
980.50,30.264
981.00,30.325
981.50,30.341
982.00,30.349
982.50,30.355
983.00,30.387
983.50,30.398
984.00,30.415
984.50,30.444
985.00,30.499
985.50,30.465
986.00,30.518
986.50,30.531
987.00,30.561
987.50,30.567
988.00,30.602
988.50,30.603
989.00,30.631
989.50,30.643
990.00,30.682
990.50,30.681
991.00,30.719
991.50,30.757
992.00,30.732
992.50,30.785
993.00,30.829
993.50,30.829
994.00,30.836
994.50,30.874
995.00,30.896
995.50,30.933
996.00,30.947
996.50,30.977
997.00,30.977
997.50,31.014
998.00,31.040
998.50,31.061
999.00,31.106
999.50,31.119
1000.00,31.136
1000.50,31.171
1001.00,31.198
1001.50,31.257
1002.00,31.245
1002.50,31.285
1003.00,31.321
1003.50,31.353
1004.00,31.370
1004.50,31.427
1005.00,31.401
1005.50,31.460
1006.00,31.470
1006.50,31.491
1007.00,31.536
1007.50,31.568
1008.00,31.629
1008.50,31.648
1009.00,31.661
1009.50,31.668
1010.00,31.702
1010.50,31.747
1011.00,31.751
1011.50,31.789
1012.00,31.832
1012.50,31.864
1013.00,31.874
1013.50,31.914
1014.00,31.979
1014.50,32.001
1015.00,32.025
1015.50,32.062
1016.00,32.078
1016.50,32.124
1017.00,32.138
1017.50,32.167
1018.00,32.216
1018.50,32.241
1019.00,32.255
1019.50,32.333
1020.00,32.352
1020.50,32.377
1021.00,32.419
1021.50,32.435
1022.00,32.464
1022.50,32.501
1023.00,32.531
1023.50,32.561
1024.00,32.597
1024.50,32.645
1025.00,32.694
1025.50,32.714
1026.00,32.748
1026.50,32.784
1027.00,32.807
1027.50,32.852
1028.00,32.870
1028.50,32.920
1029.00,32.935
1029.50,32.979
1030.00,33.039
1030.50,33.074
1031.00,33.095
1031.50,33.140
1032.00,33.227
1032.50,33.229
1033.00,33.265
1033.50,33.285
1034.00,33.321
1034.50,33.369
1035.00,33.405
1035.50,33.430
1036.00,33.449
1036.50,33.511
1037.00,33.557
1037.50,33.594
1038.00,33.635
1038.50,33.700
1039.00,33.706
1039.50,33.738
1040.00,33.811
1040.50,33.813
1041.00,33.883
1041.50,33.944
1042.00,33.954
1042.50,33.988
1043.00,34.016
1043.50,34.049
1044.00,34.117
1044.50,34.129
1045.00,34.175
1045.50,34.213
1046.00,34.247
1046.50,34.295
1047.00,34.317
1047.50,34.369
1048.00,34.388
1048.50,34.419
1049.00,34.466
1049.50,34.522
1050.00,34.539
1050.50,34.602
1051.00,34.629
1051.50,34.674
1052.00,34.712
1052.50,34.739
1053.00,34.792
1053.50,34.834
1054.00,34.860
1054.50,34.887
1055.00,34.956
1055.50,34.973
1056.00,35.015
1056.50,35.037
1057.00,35.104
1057.50,35.134
1058.00,35.176
1058.50,35.216
1059.00,35.254
1059.50,35.302
1060.00,35.299
1060.50,35.377
1061.00,35.415
1061.50,35.466
1062.00,35.498
1062.50,35.555
1063.00,35.567
1063.50,35.607
1064.00,35.689
1064.50,35.704
1065.00,35.761
1065.50,35.791
1066.00,35.829
1066.50,35.881
1067.00,35.919
1067.50,35.975
1068.00,35.990
1068.50,36.046
1069.00,36.139
1069.50,36.164
1070.00,36.210
1070.50,36.265
1071.00,36.276
1071.50,36.319
1072.00,36.371
1072.50,36.428
1073.00,36.461
1073.50,36.506
1074.00,36.555
1074.50,36.623
1075.00,36.647
1075.50,36.686
1076.00,36.727
1076.50,36.781
1077.00,36.835
1077.50,36.884
1078.00,36.895
1078.50,36.966
1079.00,36.983
1079.50,37.036
1080.00,37.116
1080.50,37.131
1081.00,37.175
1081.50,37.224
1082.00,37.289
1082.50,37.353
1083.00,37.383
1083.50,37.426
1084.00,37.482
1084.50,37.513
1085.00,37.585
1085.50,37.624
1086.00,37.695
1086.50,37.746
1087.00,37.805
1087.50,37.831
1088.00,37.909
1088.50,37.938
1089.00,38.020
1089.50,38.040
1090.00,38.099
1090.50,38.152
1091.00,38.203
1091.50,38.254
1092.00,38.313
1092.50,38.375
1093.00,38.403
1093.50,38.469
1094.00,38.492
1094.50,38.543
1095.00,38.594
1095.50,38.669
1096.00,38.699
1096.50,38.777
1097.00,38.822
1097.50,38.878
1098.00,38.929
1098.50,38.994
1099.00,39.043
1099.50,39.071
1100.00,39.134
1100.50,39.157
1101.00,39.250
1101.50,39.285
1102.00,39.354
1102.50,39.383
1103.00,39.466
1103.50,39.500
1104.00,39.548
1104.50,39.596
1105.00,39.645
1105.50,39.666
1106.00,39.724
1106.50,39.775
1107.00,39.828
1107.50,39.874
1108.00,39.932
1108.50,39.953
1109.00,40.017
1109.50,40.057
1110.00,40.107
1110.50,40.168
1111.00,40.197
1111.50,40.231
1112.00,40.290
1112.50,40.349
1113.00,40.398
1113.50,40.423
1114.00,40.488
1114.50,40.547
1115.00,40.578
1115.50,40.647
1116.00,40.737
1116.50,40.733
1117.00,40.810
1117.50,40.833
1118.00,40.915
1118.50,40.928
1119.00,40.966
1119.50,41.081
1120.00,41.121
1120.50,41.119
1121.00,41.217
1121.50,41.280
1122.00,41.302
1122.50,41.277
1123.00,41.429
1123.50,41.387
1124.00,41.477
1124.50,41.576
1125.00,41.642
1125.50,41.618
1126.00,41.678
1126.50,41.754
1127.00,41.836
1127.50,41.840
1128.00,41.899
1128.50,41.941
1129.00,42.031
1129.50,42.013
1130.00,42.097
1130.50,42.186
1131.00,42.231
1131.50,42.260
1132.00,42.314
1132.50,42.360
1133.00,42.409
1133.50,42.465
1134.00,42.576
1134.50,42.494
1135.00,42.517
1135.50,42.733
1136.00,42.653
1136.50,42.731
1137.00,42.798
1137.50,42.840
1138.00,42.962
1138.50,42.932
1139.00,42.995
1139.50,43.069
1140.00,43.117
1140.50,43.229
1141.00,43.252
1141.50,43.338
1142.00,43.364
1142.50,43.444
1143.00,43.534
1143.50,43.566
1144.00,43.587
1144.50,43.669
1145.00,43.719
1145.50,43.778
1146.00,43.859
1146.50,43.859
1147.00,43.948
1147.50,43.988
1148.00,44.097
1148.50,44.108
1149.00,44.194
1149.50,44.193
1150.00,44.254
1150.50,44.334
1151.00,44.370
1151.50,44.436
1152.00,44.489
1152.50,44.484
1153.00,44.591
1153.50,44.651
1154.00,44.692
1154.50,44.736
1155.00,44.813
1155.50,44.841
1156.00,44.889
1156.50,44.938
1157.00,45.009
1157.50,45.056
1158.00,45.122
1158.50,45.195
1159.00,45.201
1159.50,45.260
1160.00,45.342
1160.50,45.381
1161.00,45.433
1161.50,45.498
1162.00,45.554
1162.50,45.599
1163.00,45.664
1163.50,45.682
1164.00,45.778
1164.50,45.811
1165.00,45.886
1165.50,45.936
1166.00,45.992
1166.50,46.042
1167.00,46.075
1167.50,46.166
1168.00,46.203
1168.50,46.268
1169.00,46.333
1169.50,46.377
1170.00,46.402
1170.50,46.490
1171.00,46.508
1171.50,46.582
1172.00,46.635
1172.50,46.696
1173.00,46.735
1173.50,46.793
1174.00,46.840
1174.50,46.907
1175.00,46.986
1175.50,47.025
1176.00,47.098
1176.50,47.144
1177.00,47.224
1177.50,47.303
1178.00,47.324
1178.50,47.398
1179.00,47.441
1179.50,47.511
1180.00,47.600
1180.50,47.611
1181.00,47.683
1181.50,47.743
1182.00,47.799
1182.50,47.864
1183.00,47.918
1183.50,47.975
1184.00,48.037
1184.50,48.081
1185.00,48.178
1185.50,48.230
1186.00,48.306
1186.50,48.357
1187.00,48.420
1187.50,48.491
1188.00,48.545
1188.50,48.614
1189.00,48.690
1189.50,48.746
1190.00,48.805
1190.50,48.901
1191.00,48.940
1191.50,49.017
1192.00,49.052
1192.50,49.139
1193.00,49.196
1193.50,49.267
1194.00,49.314
1194.50,49.389
1195.00,49.418
1195.50,49.500
1196.00,49.590
1196.50,49.647
1197.00,49.725
1197.50,49.758
1198.00,49.839
1198.50,49.910
1199.00,49.949
1199.50,50.035
1200.00,50.077
1200.50,50.148
1201.00,50.246
1201.50,50.310
1202.00,50.387
1202.50,50.450
1203.00,50.514
1203.50,50.597
1204.00,50.628
1204.50,50.716
1205.00,50.804
1205.50,50.861
1206.00,50.936
1206.50,51.046
1207.00,51.072
1207.50,51.150
1208.00,51.219
1208.50,51.282
1209.00,51.411
1209.50,51.462
1210.00,51.518
1210.50,51.584
1211.00,51.672
1211.50,51.759
1212.00,51.829
1212.50,51.895
1213.00,51.999
1213.50,52.075
1214.00,52.165
1214.50,52.233
1215.00,52.290
1215.50,52.415
1216.00,52.446
1216.50,52.545
1217.00,52.614
1217.50,52.699
1218.00,52.799
1218.50,52.869
1219.00,52.946
1219.50,53.051
1220.00,53.122
1220.50,53.200
1221.00,53.282
1221.50,53.356
1222.00,53.439
1222.50,53.522
1223.00,53.627
1223.50,53.690
1224.00,53.792
1224.50,53.843
1225.00,53.942
1225.50,54.039
1226.00,54.125
1226.50,54.233
1227.00,54.304
1227.50,54.407
1228.00,54.496
1228.50,54.592
1229.00,54.679
1229.50,54.765
1230.00,54.863
1230.50,54.948
1231.00,55.075
1231.50,55.166
1232.00,55.246
1232.50,55.345
1233.00,55.419
1233.50,55.542
1234.00,55.598
1234.50,55.707
1235.00,55.834
1235.50,55.890
1236.00,55.991
1236.50,56.122
1237.00,56.191
1237.50,56.305
1238.00,56.405
1238.50,56.492
1239.00,56.613
1239.50,56.711
1240.00,56.813
1240.50,56.929
1241.00,57.022
1241.50,57.162
1242.00,57.280
1242.50,57.338
1243.00,57.499
1243.50,57.590
1244.00,57.690
1244.50,57.788
1245.00,57.905
1245.50,58.017
1246.00,58.104
1246.50,58.198
1247.00,58.315
1247.50,58.425
1248.00,58.532
1248.50,58.662
1249.00,58.753
1249.50,58.858
1250.00,58.964
1250.50,59.096
1251.00,59.209
1251.50,59.367
1252.00,59.488
1252.50,59.615
1253.00,59.775
1253.50,59.864
1254.00,59.989
1254.50,60.108
1255.00,60.219
1255.50,60.336
1256.00,60.450
1256.50,60.616
1257.00,60.687
1257.50,60.824
1258.00,60.925
1258.50,61.057
1259.00,61.178
1259.50,61.314
1260.00,61.428
1260.50,61.525
1261.00,61.643
1261.50,61.747
1262.00,61.863
1262.50,61.944
1263.00,62.047
1263.50,62.205
1264.00,62.292
1264.50,62.420
1265.00,62.539
1265.50,62.629
1266.00,62.743
1266.50,62.863
1267.00,62.957
1267.50,63.083
1268.00,63.205
1268.50,63.317
1269.00,63.416
1269.50,63.521
1270.00,63.634
1270.50,63.769
1271.00,63.866
1271.50,63.972
1272.00,64.097
1272.50,64.233
1273.00,64.307
1273.50,64.420
1274.00,64.542
1274.50,64.621
1275.00,64.740
1275.50,64.818
1276.00,64.962
1276.50,65.056
1277.00,65.180
1277.50,65.281
1278.00,65.378
1278.50,65.522
1279.00,65.628
1279.50,65.709
1280.00,65.797
1280.50,65.915
1281.00,65.992
1281.50,66.108
1282.00,66.209
1282.50,66.312
1283.00,66.400
1283.50,66.495
1284.00,66.617
1284.50,66.727
1285.00,66.821
1285.50,66.913
1286.00,67.022
1286.50,67.109
1287.00,67.184
1287.50,67.281
1288.00,67.402
1288.50,67.477
1289.00,67.603
1289.50,67.689
1290.00,67.767
1290.50,67.886
1291.00,67.959
1291.50,68.062
1292.00,68.145
1292.50,68.268
1293.00,68.359
1293.50,68.431
1294.00,68.527
1294.50,68.607
1295.00,68.721
1295.50,68.805
1296.00,68.885
1296.50,69.003
1297.00,69.094
1297.50,69.192
1298.00,69.287
1298.50,69.342
1299.00,69.438
1299.50,69.528
1300.00,69.632
1300.50,69.708
1301.00,69.792
1301.50,69.887
1302.00,69.968
1302.50,70.060
1303.00,70.113
1303.50,70.226
1304.00,70.325
1304.50,70.437
1305.00,70.518
1305.50,70.621
1306.00,70.744
1306.50,70.806
1307.00,70.894
1307.50,70.968
1308.00,71.034
1308.50,71.116
1309.00,71.179
1309.50,71.258
1310.00,71.337
1310.50,71.386
1311.00,71.478
1311.50,71.535
1312.00,71.598
1312.50,71.671
1313.00,71.785
1313.50,71.831
1314.00,71.931
1314.50,71.952
1315.00,72.005
1315.50,72.087
1316.00,72.133
1316.50,72.222
1317.00,72.279
1317.50,72.327
1318.00,72.393
1318.50,72.469
1319.00,72.499
1319.50,72.578
1320.00,72.610
1320.50,72.369
1321.00,72.459
1321.50,72.513
1322.00,72.535
1322.50,72.618
1323.00,72.662
1323.50,72.755
1324.00,72.783
1324.50,72.832
1325.00,72.909
1325.50,72.967
1326.00,73.029
1326.50,73.065
1327.00,73.130
1327.50,73.181
1328.00,73.214
1328.50,73.289
1329.00,73.346
1329.50,73.381
1330.00,73.434
1330.50,73.482
1331.00,73.523
1331.50,73.564
1332.00,73.611
1332.50,73.657
1333.00,73.689
1333.50,73.738
1334.00,73.791
1334.50,73.811
1335.00,73.864
1335.50,73.893
1336.00,73.926
1336.50,74.010
1337.00,74.018
1337.50,74.045
1338.00,74.082
1338.50,74.109
1339.00,74.159
1339.50,74.196
1340.00,74.203
1340.50,74.257
1341.00,74.289
1341.50,74.311
1342.00,74.360
1342.50,74.364
1343.00,74.394
1343.50,74.422
1344.00,74.471
1344.50,74.479
1345.00,74.540
1345.50,74.533
1346.00,74.582
1346.50,74.543
1347.00,74.669
1347.50,74.604
1348.00,74.690
1348.50,74.669
1349.00,74.706
1349.50,74.800
1350.00,74.663
1350.50,74.746
1351.00,74.777
1351.50,74.774
1352.00,74.819
1352.50,74.967
1353.00,74.887
1353.50,74.855
1354.00,75.099
1354.50,74.837
1355.00,75.060
1355.50,74.797
1356.00,74.772
1356.50,75.391
1357.00,75.030
1357.50,74.986
1358.00,75.210
1358.50,74.929
1359.00,75.325
1359.50,74.900
1360.00,75.068
1360.50,75.236
1361.00,75.309
1361.50,75.184
1362.00,75.383
1362.50,75.082
1363.00,75.239
1363.50,75.141
1364.00,76.206
1364.50,74.571
1365.00,75.395
1365.50,75.098
1366.00,75.313
1366.50,75.187
1367.00,75.758
1367.50,74.922
1368.00,75.810
1368.50,74.937
1369.00,75.453
1369.50,75.557
1370.00,74.984
1370.50,75.781
1371.00,75.062
1371.50,75.769
1372.00,75.170
1372.50,75.515
1373.00,75.442
1373.50,75.462
1374.00,75.463
1374.50,75.482
1375.00,75.427
1375.50,75.554
1376.00,75.284
1376.50,75.705
1377.00,75.311
1377.50,75.336
1378.00,75.671
1378.50,75.188
1379.00,75.337
1379.50,75.190
1380.00,75.642
1380.50,74.884
1381.00,75.097
1381.50,74.938
1382.00,75.948
1382.50,74.622
1383.00,75.207
1383.50,75.561
1384.00,74.970
1384.50,75.603
1385.00,74.992
1385.50,75.196
1386.00,75.254
1386.50,75.058
1387.00,75.000
1387.50,75.629
1388.00,74.695
1388.50,74.974
1389.00,74.929
1389.50,75.014
1390.00,74.789
1390.50,74.801
1391.00,74.737
1391.50,74.585
1392.00,75.830
1392.50,74.128
1393.00,74.585
1393.50,74.571
1394.00,74.213
1394.50,74.820
1395.00,74.415
1395.50,73.730
1396.00,75.499
1396.50,73.714
1397.00,74.245
1397.50,74.215
1398.00,74.258
1398.50,74.006
1399.00,74.553
1399.50,74.014
1400.00,73.994
1400.50,73.905
1401.00,74.090
1401.50,73.818
1402.00,73.915
1402.50,74.066
1403.00,73.914
1403.50,73.952
1404.00,73.617
1404.50,74.848
1405.00,73.254
1405.50,73.870
1406.00,73.843
1406.50,74.078
1407.00,73.986
1407.50,73.772
1408.00,73.905
1408.50,73.945
1409.00,74.285
1409.50,73.751
1410.00,73.935
1410.50,74.025
1411.00,74.001
1411.50,74.071
1412.00,74.188
1412.50,73.983
1413.00,74.091
1413.50,74.342
1414.00,74.234
1414.50,74.012
1415.00,74.239
1415.50,74.228
1416.00,74.260
1416.50,74.274
1417.00,74.421
1417.50,74.289
1418.00,74.281
1418.50,74.587
1419.00,74.399
1419.50,74.467
1420.00,74.479
1420.50,74.567
1421.00,74.603
1421.50,74.569
1422.00,74.659
1422.50,74.685
1423.00,74.689
1423.50,74.841
1424.00,74.652
1424.50,74.798
1425.00,74.862
1425.50,74.844
1426.00,74.867
1426.50,74.905
1427.00,74.940
1427.50,74.992
1428.00,74.957
1428.50,75.041
1429.00,75.006
1429.50,75.099
1430.00,75.017
1430.50,75.162
1431.00,75.168
1431.50,75.058
1432.00,75.286
1432.50,75.151
1433.00,75.219
1433.50,75.236
1434.00,75.253
1434.50,75.208
1435.00,75.297
1435.50,75.394
1436.00,75.342
1436.50,75.369
1437.00,75.455
1437.50,75.394
1438.00,75.336
1438.50,75.413
1439.00,75.582
1439.50,75.419
1440.00,75.505
1440.50,75.471
1441.00,75.657
1441.50,75.467
1442.00,75.556
1442.50,75.695
1443.00,75.560
1443.50,75.636
1444.00,75.669
1444.50,75.591
1445.00,75.789
1445.50,75.693
1446.00,75.610
1446.50,75.764
1447.00,75.721
1447.50,75.785
1448.00,75.790
1448.50,75.746
1449.00,75.779
1449.50,75.811
1450.00,75.905
1450.50,75.876
1451.00,75.852
1451.50,75.857
1452.00,75.981
1452.50,75.924
1453.00,75.934
1453.50,75.971
1454.00,75.989
1454.50,75.959
1455.00,76.115
1455.50,75.957
1456.00,76.052
1456.50,76.057
1457.00,76.094
1457.50,76.103
1458.00,76.114
1458.50,76.162
1459.00,76.176
1459.50,76.140
1460.00,76.235
1460.50,76.186
1461.00,76.213
1461.50,76.215
1462.00,76.256
1462.50,76.238
1463.00,76.353
1463.50,76.254
1464.00,76.331
1464.50,76.324
1465.00,76.455
1465.50,76.329
1466.00,76.424
1466.50,76.413
1467.00,76.452
1467.50,76.429
1468.00,76.494
1468.50,76.486
1469.00,76.480
1469.50,76.656
1470.00,76.436
1470.50,76.665
1471.00,76.620
1471.50,76.578
1472.00,76.611
1472.50,76.643
1473.00,76.614
1473.50,76.724
1474.00,76.663
1474.50,76.732
1475.00,76.724
1475.50,76.777
1476.00,76.766
1476.50,76.778
1477.00,76.853
1477.50,76.833
1478.00,76.826
1478.50,76.839
1479.00,76.892
1479.50,76.904
1480.00,76.920
1480.50,76.952
1481.00,76.900
1481.50,76.989
1482.00,76.957
1482.50,76.992
1483.00,77.028
1483.50,77.031
1484.00,77.058
1484.50,77.092
1485.00,77.076
1485.50,77.100
1486.00,77.097
1486.50,77.134
1487.00,77.137
1487.50,77.149
1488.00,77.174
1488.50,77.198
1489.00,77.226
1489.50,77.234
1490.00,77.222
1490.50,77.297
1491.00,77.301
1491.50,77.313
1492.00,77.309
1492.50,77.330
1493.00,77.351
1493.50,77.344
1494.00,77.370
1494.50,77.386
1495.00,77.461
1495.50,77.429
1496.00,77.496
1496.50,77.471
1497.00,77.449
1497.50,77.487
1498.00,77.510
1498.50,77.540
1499.00,77.563
1499.50,77.567
1500.00,77.581
1500.50,77.567
1501.00,77.631
1501.50,77.656
1502.00,77.671
1502.50,77.655
1503.00,77.713
1503.50,77.712
1504.00,77.728
1504.50,77.751
1505.00,77.754
1505.50,77.785
1506.00,77.789
1506.50,77.801
1507.00,77.816
1507.50,77.837
1508.00,77.867
1508.50,77.873
1509.00,77.875
1509.50,77.888
1510.00,77.933
1510.50,77.942
1511.00,77.968
1511.50,77.996
1512.00,78.016
1512.50,78.023
1513.00,78.041
1513.50,78.054
1514.00,78.049
1514.50,78.059
1515.00,78.090
1515.50,78.110
1516.00,78.115
1516.50,78.141
1517.00,78.226
1517.50,78.151
1518.00,78.152
1518.50,78.174
1519.00,78.165
1519.50,78.222
1520.00,78.239
1520.50,78.215
1521.00,78.228
1521.50,78.263
1522.00,78.287
1522.50,78.282
1523.00,78.295
1523.50,78.292
1524.00,78.344
1524.50,78.357
1525.00,78.336
1525.50,78.347
1526.00,78.341
1526.50,78.376
1527.00,78.404
1527.50,78.415
1528.00,78.429
1528.50,78.428
1529.00,78.425
1529.50,78.423
1530.00,78.431
1530.50,78.478
1531.00,78.486
1531.50,78.482
1532.00,78.529
1532.50,78.513
1533.00,78.532
1533.50,78.543
1534.00,78.550
1534.50,78.576
1535.00,78.568
1535.50,78.604
1536.00,78.586
1536.50,78.614
1537.00,78.612
1537.50,78.613
1538.00,78.686
1538.50,78.682
1539.00,78.680
1539.50,78.707
1540.00,78.728
1540.50,78.699
1541.00,78.734
1541.50,78.732
1542.00,78.760
1542.50,78.751
1543.00,78.795
1543.50,78.764
1544.00,78.838
1544.50,78.804
1545.00,78.814
1545.50,78.849
1546.00,78.871
1546.50,78.850
1547.00,78.858
1547.50,78.870
1548.00,78.895
1548.50,78.920
1549.00,78.920
1549.50,78.963
1550.00,78.931
1550.50,78.961
1551.00,78.965
1551.50,78.984
1552.00,78.996
1552.50,79.011
1553.00,79.034
1553.50,79.054
1554.00,79.019
1554.50,79.027
1555.00,79.061
1555.50,79.065
1556.00,79.068
1556.50,79.102
1557.00,79.102
1557.50,79.115
1558.00,79.097
1558.50,79.104
1559.00,79.123
1559.50,79.164
1560.00,79.156
1560.50,79.180
1561.00,79.157
1561.50,79.211
1562.00,79.176
1562.50,79.210
1563.00,79.190
1563.50,79.216
1564.00,79.252
1564.50,79.221
1565.00,79.239
1565.50,79.270
1566.00,79.268
1566.50,79.266
1567.00,79.296
1567.50,79.273
1568.00,79.335
1568.50,79.303
1569.00,79.338
1569.50,79.321
1570.00,79.313
1570.50,79.342
1571.00,79.348
1571.50,79.358
1572.00,79.390
1572.50,79.352
1573.00,79.382
1573.50,79.380
1574.00,79.392
1574.50,79.388
1575.00,79.404
1575.50,79.430
1576.00,79.391
1576.50,79.393
1577.00,79.469
1577.50,79.435
1578.00,79.439
1578.50,79.470
1579.00,79.463
1579.50,79.455
1580.00,79.459
1580.50,79.472
1581.00,79.503
1581.50,79.509
1582.00,79.506
1582.50,79.523
1583.00,79.525
1583.50,79.538
1584.00,79.547
1584.50,79.542
1585.00,79.592
1585.50,79.607
1586.00,79.575
1586.50,79.599
1587.00,79.612
1587.50,79.593
1588.00,79.663
1588.50,79.661
1589.00,79.657
1589.50,79.649
1590.00,79.656
1590.50,79.656
1591.00,79.703
1591.50,79.645
1592.00,79.656
1592.50,79.670
1593.00,79.678
1593.50,79.733
1594.00,79.694
1594.50,79.777
1595.00,79.745
1595.50,79.735
1596.00,79.791
1596.50,79.762
1597.00,79.800
1597.50,79.794
1598.00,79.776
1598.50,79.810
1599.00,79.792
1599.50,79.802
1600.00,79.796
