"sample_a - RawData"
"Wavelength nm.","T%"
200.00,2.991
200.50,2.680
201.00,2.786
201.50,2.785
202.00,2.852
202.50,2.728
203.00,2.756
203.50,2.534
204.00,2.827
204.50,2.764
205.00,2.503
205.50,2.853
206.00,2.875
206.50,2.855
207.00,2.915
207.50,2.939
208.00,2.895
208.50,2.903
209.00,2.806
209.50,3.032
210.00,2.954
210.50,3.092
211.00,3.117
211.50,3.223
212.00,3.204
212.50,3.103
213.00,3.304
213.50,3.317
214.00,3.447
214.50,3.510
215.00,3.481
215.50,3.550
216.00,3.502
216.50,3.626
217.00,3.758
217.50,3.731
218.00,3.664
218.50,3.712
219.00,3.665
219.50,3.780
220.00,3.749
220.50,3.744
221.00,3.875
221.50,3.937
222.00,3.931
222.50,3.933
223.00,3.951
223.50,3.923
224.00,3.983
224.50,3.987
225.00,3.984
225.50,4.022
226.00,4.017
226.50,3.998
227.00,4.075
227.50,4.125
228.00,4.080
228.50,4.062
229.00,4.139
229.50,4.230
230.00,4.191
230.50,4.131
231.00,4.187
231.50,4.183
232.00,4.230
232.50,4.295
233.00,4.301
233.50,4.279
234.00,4.230
234.50,4.232
235.00,4.272
235.50,4.319
236.00,4.287
236.50,4.265
237.00,4.239
237.50,4.311
238.00,4.324
238.50,4.357
239.00,4.291
239.50,4.332
240.00,4.283
240.50,4.252
241.00,4.323
241.50,4.309
242.00,4.295
242.50,4.257
243.00,4.310
243.50,4.214
244.00,4.267
244.50,4.234
245.00,4.206
245.50,4.229
246.00,4.201
246.50,4.155
247.00,4.157
247.50,4.166
248.00,4.160
248.50,4.109
249.00,4.152
249.50,4.088
250.00,4.174
250.50,4.100
251.00,4.105
251.50,4.084
252.00,4.125
252.50,4.100
253.00,4.135
253.50,4.098
254.00,4.070
254.50,4.092
255.00,4.117
255.50,4.112
256.00,4.111
256.50,4.153
257.00,4.149
257.50,4.225
258.00,4.190
258.50,4.276
259.00,4.210
259.50,4.281
260.00,4.263
260.50,4.292
261.00,4.353
261.50,4.349
262.00,4.368
262.50,4.450
263.00,4.510
263.50,4.561
264.00,4.588
264.50,4.616
265.00,4.699
265.50,4.766
266.00,4.745
266.50,4.809
267.00,4.941
267.50,5.007
268.00,5.028
268.50,5.071
269.00,5.125
269.50,5.252
270.00,5.316
270.50,5.311
271.00,5.441
271.50,5.449
272.00,5.571
272.50,5.678
273.00,5.721
273.50,5.760
274.00,5.817
274.50,5.961
275.00,6.006
275.50,6.044
276.00,6.138
276.50,6.244
277.00,6.358
277.50,6.387
278.00,6.461
278.50,6.570
279.00,6.601
279.50,6.653
280.00,6.756
280.50,6.865
281.00,6.968
281.50,6.999
282.00,7.173
282.50,7.139
283.00,7.305
283.50,7.415
284.00,7.414
284.50,7.593
285.00,7.620
285.50,7.767
286.00,7.887
286.50,7.994
287.00,8.150
287.50,8.215
288.00,8.304
288.50,8.418
289.00,8.559
289.50,8.686
290.00,8.734
290.50,8.893
291.00,9.025
291.50,9.206
292.00,9.287
292.50,9.404
293.00,9.565
293.50,9.786
294.00,9.862
294.50,10.102
295.00,10.197
295.50,10.418
296.00,10.476
296.50,10.775
297.00,10.929
297.50,11.167
298.00,11.229
298.50,11.505
299.00,11.637
299.50,11.889
300.00,12.126
300.50,12.377
301.00,12.485
301.50,12.799
302.00,12.985
302.50,13.388
303.00,13.434
303.50,13.684
304.00,13.990
304.50,14.201
305.00,14.501
305.50,14.686
306.00,15.066
306.50,15.250
307.00,15.313
307.50,15.606
308.00,16.089
308.50,16.273
309.00,16.533
309.50,16.898
310.00,17.204
310.50,17.624
311.00,17.863
311.50,18.108
312.00,18.431
312.50,18.864
313.00,19.431
313.50,19.725
314.00,19.800
314.50,20.241
315.00,20.543
315.50,20.945
316.00,21.289
316.50,21.562
317.00,21.928
317.50,22.431
318.00,22.691
318.50,22.990
319.00,23.374
319.50,23.802
320.00,24.034
320.50,24.337
321.00,24.710
321.50,25.216
322.00,25.553
322.50,25.906
323.00,26.353
323.50,26.729
324.00,27.020
324.50,27.199
325.00,27.759
325.50,27.788
326.00,28.534
326.50,28.742
327.00,28.796
327.50,29.540
328.00,29.696
328.50,30.218
329.00,30.303
329.50,30.913
330.00,31.121
330.50,31.636
331.00,31.778
331.50,31.815
332.00,32.217
332.50,32.520
333.00,32.685
333.50,33.168
334.00,33.530
334.50,33.977
335.00,34.025
335.50,34.219
336.00,34.385
336.50,34.444
337.00,34.630
337.50,34.762
338.00,35.198
338.50,35.011
339.00,35.495
339.50,35.534
340.00,36.046
340.50,37.961
341.00,35.996
341.50,38.122
342.00,37.051
342.50,37.376
343.00,37.016
343.50,38.586
344.00,37.437
344.50,37.238
345.00,36.621
345.50,37.839
346.00,36.765
346.50,37.369
347.00,36.470
347.50,37.121
348.00,36.570
348.50,36.667
349.00,36.209
349.50,35.688
350.00,35.941
350.50,35.198
351.00,35.414
351.50,35.252
352.00,35.074
352.50,34.247
353.00,34.491
353.50,33.642
354.00,33.237
354.50,33.125
355.00,32.453
355.50,32.729
356.00,32.011
356.50,31.609
357.00,30.901
357.50,30.201
358.00,29.760
358.50,29.586
359.00,28.785
359.50,28.530
360.00,27.750
360.50,26.958
361.00,26.347
361.50,25.975
362.00,25.220
362.50,24.787
363.00,24.554
363.50,23.408
364.00,22.994
364.50,22.441
365.00,21.614
365.50,21.243
366.00,20.886
366.50,20.167
367.00,19.436
367.50,18.806
368.00,18.688
368.50,17.889
369.00,17.294
369.50,16.893
370.00,16.215
370.50,15.789
371.00,15.394
371.50,14.969
372.00,14.591
372.50,14.076
373.00,13.657
373.50,13.243
374.00,12.984
374.50,12.438
375.00,12.279
375.50,11.940
376.00,11.555
376.50,11.320
377.00,10.985
377.50,10.746
378.00,10.532
378.50,10.279
379.00,9.960
379.50,9.819
380.00,9.531
380.50,9.410
381.00,9.218
381.50,8.977
382.00,8.939
382.50,8.754
383.00,8.596
383.50,8.389
384.00,8.237
384.50,8.112
385.00,8.051
385.50,7.923
386.00,7.838
386.50,7.678
387.00,7.578
387.50,7.526
388.00,7.455
388.50,7.325
389.00,7.304
389.50,7.230
390.00,7.142
390.50,7.086
391.00,7.044
391.50,6.985
392.00,6.970
392.50,6.881
393.00,6.779
393.50,6.753
394.00,6.674
394.50,6.658
395.00,6.671
395.50,6.575
396.00,6.480
396.50,6.470
397.00,6.496
397.50,6.419
398.00,6.409
398.50,6.364
399.00,6.372
399.50,6.343
400.00,6.333
400.50,6.329
401.00,6.268
401.50,6.228
402.00,6.228
402.50,6.257
403.00,6.169
403.50,6.228
404.00,6.221
404.50,6.182
405.00,6.190
405.50,6.181
406.00,6.154
406.50,6.113
407.00,6.113
407.50,6.149
408.00,6.106
408.50,6.081
409.00,6.068
409.50,6.094
410.00,6.045
410.50,6.106
411.00,6.121
411.50,6.110
412.00,6.135
412.50,6.109
413.00,6.167
413.50,6.160
414.00,6.171
414.50,6.215
415.00,6.305
415.50,6.329
416.00,6.326
416.50,6.384
417.00,6.451
417.50,6.449
418.00,6.471
418.50,6.574
419.00,6.666
419.50,6.676
420.00,6.745
420.50,6.813
421.00,6.874
421.50,6.953
422.00,6.989
422.50,7.100
423.00,7.131
423.50,7.205
424.00,7.336
424.50,7.401
425.00,7.491
425.50,7.666
426.00,7.778
426.50,7.856
427.00,8.004
427.50,8.118
428.00,8.365
428.50,8.477
429.00,8.602
429.50,8.749
430.00,8.887
430.50,9.122
431.00,9.279
431.50,9.415
432.00,9.732
432.50,9.949
433.00,10.174
433.50,10.482
434.00,10.757
434.50,10.985
435.00,11.339
435.50,11.669
436.00,12.027
436.50,12.375
437.00,12.801
437.50,13.224
438.00,13.594
438.50,14.111
439.00,14.503
439.50,15.006
440.00,15.488
440.50,16.030
441.00,16.484
441.50,17.113
442.00,17.667
442.50,18.276
443.00,18.807
443.50,19.504
444.00,20.078
444.50,20.664
445.00,21.287
445.50,21.977
446.00,22.637
446.50,23.327
447.00,23.957
447.50,24.577
448.00,25.202
448.50,25.833
449.00,26.488
449.50,27.175
450.00,27.977
450.50,28.508
451.00,29.258
451.50,29.837
452.00,30.392
452.50,31.126
453.00,31.607
453.50,32.247
454.00,32.864
454.50,33.445
455.00,33.878
455.50,34.388
456.00,34.947
456.50,35.512
457.00,36.035
457.50,36.395
458.00,36.971
458.50,37.462
459.00,37.775
459.50,38.259
460.00,38.425
460.50,38.873
461.00,39.255
461.50,39.549
462.00,39.674
462.50,39.913
463.00,40.164
463.50,40.472
464.00,40.999
464.50,41.483
465.00,41.885
465.50,42.025
466.00,42.248
466.50,42.462
467.00,42.370
467.50,41.895
468.00,40.957
468.50,40.174
469.00,40.936
469.50,42.402
470.00,43.331
470.50,44.006
471.00,44.471
471.50,44.821
472.00,45.109
472.50,45.232
473.00,45.456
473.50,45.459
474.00,45.326
474.50,44.827
475.00,43.744
475.50,43.614
476.00,43.416
476.50,41.503
477.00,42.049
477.50,44.123
478.00,44.987
478.50,45.324
479.00,45.454
479.50,45.466
480.00,45.424
480.50,45.295
481.00,45.217
481.50,45.122
482.00,45.046
482.50,45.100
483.00,44.947
483.50,44.827
484.00,44.775
484.50,44.697
485.00,44.523
485.50,44.413
486.00,44.063
486.50,44.040
487.00,43.953
487.50,43.734
488.00,43.407
488.50,43.226
489.00,42.945
489.50,42.808
490.00,42.526
490.50,42.299
491.00,42.007
491.50,41.899
492.00,41.523
492.50,41.270
493.00,41.001
493.50,40.747
494.00,40.535
494.50,40.134
495.00,39.878
495.50,39.681
496.00,39.269
496.50,39.026
497.00,38.734
497.50,38.423
498.00,38.110
498.50,37.690
499.00,37.450
499.50,37.175
500.00,36.871
500.50,36.496
501.00,36.149
501.50,35.877
502.00,35.552
502.50,35.298
503.00,34.936
503.50,34.602
504.00,34.300
504.50,33.932
505.00,33.639
505.50,33.226
506.00,32.889
506.50,32.646
507.00,32.322
507.50,31.895
508.00,31.619
508.50,31.257
509.00,30.979
509.50,30.626
510.00,30.336
510.50,30.015
511.00,29.648
511.50,29.460
512.00,29.028
512.50,28.762
513.00,28.472
513.50,28.180
514.00,27.858
514.50,27.575
515.00,27.286
515.50,26.988
516.00,26.683
516.50,26.363
517.00,26.111
517.50,25.960
518.00,25.605
518.50,25.345
519.00,25.126
519.50,24.850
520.00,24.672
520.50,24.394
521.00,24.114
521.50,23.911
522.00,23.636
522.50,23.327
523.00,23.222
523.50,23.002
524.00,22.765
524.50,22.610
525.00,22.402
525.50,22.142
526.00,21.966
526.50,21.781
527.00,21.626
527.50,21.506
528.00,21.291
528.50,21.112
529.00,21.005
529.50,20.856
530.00,20.635
530.50,20.442
531.00,20.298
531.50,20.210
532.00,19.994
532.50,19.913
533.00,19.747
533.50,19.654
534.00,19.544
534.50,19.467
535.00,19.342
535.50,19.207
536.00,19.156
536.50,19.023
537.00,18.960
537.50,18.869
538.00,18.788
538.50,18.742
539.00,18.650
539.50,18.611
540.00,18.578
540.50,18.456
541.00,18.432
541.50,18.384
542.00,18.391
542.50,18.290
543.00,18.259
543.50,18.240
544.00,18.281
544.50,18.229
545.00,18.276
545.50,18.176
546.00,18.197
546.50,18.211
547.00,18.250
547.50,18.227
548.00,18.263
548.50,18.313
549.00,18.325
549.50,18.372
550.00,18.402
550.50,18.419
551.00,18.471
551.50,18.572
552.00,18.609
552.50,18.684
553.00,18.732
553.50,18.790
554.00,18.913
554.50,19.011
555.00,19.097
555.50,19.209
556.00,19.268
556.50,19.398
557.00,19.503
557.50,19.610
558.00,19.802
558.50,19.886
559.00,20.087
559.50,20.196
560.00,20.347
560.50,20.554
561.00,20.749
561.50,20.917
562.00,21.104
562.50,21.288
563.00,21.483
563.50,21.683
564.00,21.994
564.50,22.178
565.00,22.479
565.50,22.739
566.00,22.996
566.50,23.266
567.00,23.502
567.50,23.763
568.00,24.081
568.50,24.379
569.00,24.688
569.50,25.031
570.00,25.318
570.50,25.680
571.00,25.991
571.50,26.378
572.00,26.641
572.50,26.945
573.00,27.398
573.50,27.727
574.00,28.092
574.50,28.531
575.00,28.828
575.50,29.220
576.00,29.573
576.50,29.969
577.00,30.388
577.50,30.806
578.00,31.273
578.50,31.582
579.00,32.011
579.50,32.383
580.00,32.875
580.50,33.307
581.00,33.685
581.50,34.096
582.00,34.554
582.50,34.950
583.00,35.352
583.50,35.749
584.00,36.184
584.50,36.606
585.00,37.041
585.50,37.512
586.00,37.866
586.50,38.402
587.00,38.824
587.50,39.265
588.00,39.675
588.50,40.139
589.00,40.593
589.50,40.998
590.00,41.385
590.50,41.834
591.00,42.358
591.50,42.711
592.00,43.125
592.50,43.690
593.00,44.089
593.50,44.660
594.00,45.179
594.50,45.562
595.00,45.918
595.50,46.528
596.00,47.012
596.50,47.411
597.00,47.869
597.50,48.349
598.00,48.786
598.50,49.273
599.00,49.617
599.50,50.125
600.00,50.634
600.50,51.092
601.00,51.571
601.50,51.949
602.00,52.458
602.50,52.832
603.00,53.471
603.50,53.696
604.00,54.273
604.50,54.710
605.00,55.187
605.50,55.525
606.00,55.902
606.50,56.391
607.00,56.827
607.50,57.238
608.00,57.587
608.50,57.969
609.00,58.481
609.50,58.939
610.00,59.188
610.50,59.578
611.00,60.024
611.50,60.293
612.00,60.635
612.50,60.955
613.00,61.384
613.50,61.685
614.00,61.996
614.50,62.382
615.00,62.595
615.50,62.925
616.00,63.107
616.50,63.383
617.00,63.740
617.50,64.058
618.00,64.226
618.50,64.536
619.00,64.928
619.50,64.965
620.00,65.161
620.50,65.758
621.00,65.810
621.50,65.954
622.00,66.217
622.50,66.326
623.00,66.671
623.50,66.751
624.00,67.021
624.50,67.214
625.00,67.277
625.50,67.460
626.00,67.661
626.50,67.730
627.00,67.869
627.50,67.981
628.00,68.270
628.50,68.540
629.00,68.595
629.50,68.599
630.00,68.796
630.50,68.996
631.00,69.088
631.50,69.214
632.00,69.291
632.50,69.436
633.00,69.502
633.50,69.767
634.00,69.643
634.50,69.924
635.00,69.755
635.50,69.960
636.00,70.058
636.50,70.064
637.00,70.211
637.50,70.235
638.00,70.342
638.50,70.425
639.00,70.463
639.50,70.541
640.00,70.561
640.50,70.682
641.00,70.701
641.50,70.800
642.00,70.786
642.50,70.868
643.00,71.151
643.50,71.010
644.00,71.061
644.50,71.324
645.00,71.263
645.50,71.213
646.00,71.424
646.50,71.414
647.00,71.499
647.50,71.503
648.00,71.582
648.50,71.675
649.00,71.754
649.50,71.726
650.00,71.876
650.50,71.924
651.00,71.952
651.50,71.897
652.00,72.134
652.50,72.203
653.00,72.282
653.50,72.285
654.00,72.400
654.50,72.473
655.00,72.316
655.50,72.551
656.00,72.339
656.50,72.293
657.00,72.319
657.50,72.100
658.00,71.957
658.50,71.480
659.00,71.231
659.50,71.044
660.00,71.350
660.50,71.767
661.00,72.176
661.50,72.499
662.00,72.600
662.50,72.701
663.00,72.729
663.50,72.755
664.00,72.780
664.50,72.730
665.00,72.759
665.50,72.698
666.00,72.888
666.50,72.901
667.00,72.969
667.50,72.798
668.00,72.898
668.50,72.890
669.00,72.920
669.50,72.783
670.00,73.027
670.50,73.082
671.00,73.183
671.50,73.221
672.00,73.398
672.50,73.534
673.00,73.445
673.50,73.478
674.00,73.399
674.50,73.474
675.00,73.294
675.50,73.447
676.00,73.689
676.50,73.777
677.00,73.856
677.50,73.922
678.00,74.051
678.50,74.234
679.00,74.195
679.50,73.960
680.00,74.051
680.50,74.287
681.00,74.157
681.50,74.328
682.00,74.410
682.50,74.353
683.00,74.649
683.50,74.590
684.00,74.730
684.50,74.620
685.00,74.657
685.50,74.652
686.00,74.772
686.50,74.928
687.00,74.822
687.50,74.863
688.00,74.983
688.50,74.986
689.00,75.062
689.50,74.982
690.00,75.051
690.50,75.180
691.00,74.844
691.50,75.187
692.00,74.590
692.50,72.247
693.00,69.648
693.50,73.286
694.00,71.036
694.50,70.068
695.00,73.928
695.50,75.004
696.00,75.397
696.50,75.320
697.00,75.339
697.50,75.389
698.00,75.763
698.50,75.518
699.00,75.714
699.50,75.765
700.00,75.788
700.50,75.712
701.00,75.632
701.50,75.797
702.00,76.034
702.50,75.993
703.00,75.722
703.50,76.025
704.00,75.847
704.50,76.077
705.00,76.165
705.50,75.979
706.00,76.170
706.50,76.242
707.00,76.153
707.50,76.155
708.00,76.044
708.50,76.129
709.00,76.411
709.50,76.320
710.00,76.296
710.50,76.327
711.00,76.518
711.50,76.431
712.00,76.334
712.50,76.385
713.00,76.431
713.50,76.548
714.00,76.296
714.50,76.384
715.00,76.371
715.50,76.773
716.00,76.381
716.50,76.698
717.00,76.757
717.50,76.671
718.00,76.822
718.50,76.685
719.00,76.758
719.50,76.815
720.00,76.775
720.50,76.900
721.00,76.752
721.50,77.195
722.00,77.240
722.50,77.084
723.00,76.946
723.50,76.768
724.00,76.863
724.50,77.198
725.00,77.224
725.50,77.171
726.00,77.277
726.50,76.963
727.00,77.279
727.50,77.443
728.00,77.155
728.50,77.208
729.00,77.234
729.50,77.252
730.00,77.642
730.50,77.241
731.00,77.434
731.50,77.559
732.00,77.770
732.50,77.659
733.00,77.614
733.50,77.786
734.00,77.583
734.50,77.638
735.00,77.436
735.50,77.936
736.00,77.824
736.50,77.862
737.00,78.136
737.50,77.845
738.00,77.975
738.50,78.092
739.00,77.969
739.50,78.336
740.00,77.958
740.50,77.949
741.00,77.987
741.50,77.856
742.00,77.927
742.50,78.204
743.00,78.122
743.50,78.238
744.00,78.364
744.50,78.310
745.00,78.179
745.50,78.497
746.00,78.401
746.50,78.255
747.00,78.137
747.50,78.165
748.00,78.125
748.50,78.325
749.00,78.427
749.50,78.412
750.00,78.585
750.50,78.749
751.00,78.728
751.50,78.559
752.00,78.598
752.50,78.651
753.00,78.597
753.50,78.630
754.00,78.666
754.50,78.520
755.00,78.559
755.50,78.732
756.00,78.709
756.50,78.969
757.00,78.737
757.50,78.845
758.00,78.952
758.50,79.256
759.00,78.765
759.50,78.941
760.00,79.114
760.50,78.966
761.00,78.653
761.50,79.005
762.00,79.064
762.50,78.884
763.00,78.987
763.50,79.467
764.00,78.802
764.50,78.969
765.00,79.029
765.50,79.149
766.00,79.182
766.50,78.962
767.00,79.447
767.50,79.513
768.00,79.402
768.50,79.348
769.00,79.393
769.50,79.379
770.00,79.048
770.50,79.264
771.00,79.129
771.50,79.061
772.00,78.995
772.50,79.166
773.00,79.301
773.50,79.324
774.00,78.845
774.50,79.300
775.00,79.246
775.50,79.508
776.00,79.596
776.50,79.497
777.00,79.281
777.50,79.335
778.00,79.266
778.50,79.567
779.00,79.649
779.50,79.619
780.00,79.777
780.50,79.630
781.00,79.817
781.50,79.904
782.00,79.769
782.50,79.978
783.00,79.773
783.50,80.020
784.00,79.778
784.50,79.634
785.00,79.980
785.50,80.087
786.00,79.868
786.50,79.938
787.00,80.058
787.50,80.200
788.00,80.237
788.50,80.107
789.00,80.316
789.50,79.868
790.00,79.832
790.50,80.186
791.00,79.980
791.50,79.989
792.00,80.420
792.50,79.846
793.00,80.473
793.50,80.337
794.00,80.294
794.50,80.234
795.00,80.360
795.50,80.647
796.00,80.205
796.50,80.005
797.00,80.147
797.50,80.310
798.00,80.156
798.50,80.251
799.00,80.068
799.50,80.690
800.00,80.108
800.50,80.252
801.00,80.631
801.50,80.635
802.00,80.570
802.50,80.562
803.00,80.581
803.50,80.549
804.00,80.950
804.50,80.266
805.00,80.134
805.50,80.398
806.00,80.285
806.50,80.417
807.00,80.599
807.50,80.140
808.00,80.918
808.50,80.082
809.00,80.369
809.50,80.051
810.00,80.519
810.50,80.977
811.00,80.674
811.50,80.818
812.00,80.719
812.50,80.976
813.00,80.854
813.50,80.348
814.00,80.491
814.50,80.880
815.00,80.555
815.50,80.804
816.00,80.969
816.50,80.392
817.00,80.209
817.50,79.910
818.00,80.718
818.50,80.945
819.00,80.797
819.50,80.666
820.00,80.880
820.50,80.727
821.00,80.665
821.50,80.809
822.00,80.655
822.50,80.689
823.00,80.914
823.50,80.497
824.00,81.458
824.50,81.324
825.00,80.877
825.50,80.664
826.00,80.933
826.50,81.151
827.00,80.844
827.50,81.196
828.00,81.360
828.50,80.337
829.00,81.072
829.50,81.272
830.00,80.934
830.50,80.765
831.00,81.353
831.50,80.990
832.00,80.953
832.50,81.095
833.00,81.605
833.50,81.191
834.00,81.489
834.50,80.972
835.00,81.454
835.50,81.861
836.00,80.804
836.50,80.599
837.00,81.057
837.50,81.150
838.00,81.091
838.50,81.550
839.00,81.337
839.50,81.123
840.00,81.237
840.50,81.065
841.00,80.907
841.50,81.277
842.00,81.497
842.50,80.915
843.00,81.248
843.50,81.603
844.00,81.785
844.50,81.092
845.00,81.714
845.50,81.624
846.00,81.856
846.50,81.028
847.00,81.000
847.50,82.232
848.00,81.287
848.50,81.538
849.00,81.456
849.50,81.526
850.00,81.190
850.50,81.620
851.00,81.256
851.50,82.126
852.00,81.577
852.50,81.465
853.00,81.547
853.50,81.503
854.00,80.943
854.50,81.705
855.00,81.259
855.50,82.055
856.00,81.916
856.50,81.611
857.00,82.187
857.50,81.835
858.00,82.170
858.50,81.216
859.00,82.007
859.50,81.707
860.00,82.195
860.50,81.911
861.00,81.817
861.50,82.142
862.00,81.910
862.50,81.452
863.00,82.526
863.50,81.994
864.00,82.430
864.50,82.077
865.00,82.324
865.50,81.403
866.00,81.954
866.50,81.849
867.00,82.327
867.50,82.033
868.00,83.115
868.50,82.495
869.00,82.384
869.50,81.981
870.00,82.662
870.50,83.043
871.00,82.352
871.50,82.778
872.00,82.572
872.50,82.849
873.00,82.947
873.50,82.658
874.00,82.136
874.50,82.797
875.00,82.546
875.50,82.236
876.00,82.710
876.50,82.996
877.00,81.863
877.50,82.596
878.00,82.514
878.50,81.842
879.00,82.685
879.50,82.106
880.00,82.408
880.50,84.577
881.00,82.711
881.50,82.062
882.00,82.179
882.50,82.221
883.00,82.110
883.50,81.039
884.00,82.322
884.50,82.373
885.00,82.628
885.50,83.311
886.00,84.295
886.50,82.208
887.00,83.576
887.50,82.692
888.00,83.808
888.50,82.442
889.00,85.732
889.50,82.357
890.00,81.930
890.50,83.451
891.00,84.261
891.50,84.585
892.00,82.249
892.50,82.315
893.00,84.602
893.50,84.446
894.00,82.470
894.50,82.891
895.00,84.164
895.50,85.462
896.00,81.940
896.50,84.275
897.00,85.343
897.50,81.087
898.00,80.564
898.50,82.111
899.00,84.648
899.50,84.820
900.00,83.318
900.50,84.653
901.00,84.795
901.50,84.842
902.00,84.767
902.50,84.787
903.00,84.510
903.50,84.783
904.00,84.706
904.50,84.857
905.00,84.804
905.50,84.790
906.00,84.570
906.50,84.691
907.00,84.631
907.50,84.855
908.00,84.624
908.50,84.990
909.00,84.792
909.50,84.693
910.00,84.687
910.50,84.804
911.00,84.789
911.50,84.737
912.00,84.661
912.50,84.805
913.00,84.987
913.50,84.839
914.00,84.871
914.50,84.955
915.00,84.852
915.50,84.740
916.00,84.757
916.50,84.702
917.00,84.824
917.50,85.025
918.00,84.816
918.50,84.828
919.00,84.886
919.50,84.910
920.00,84.925
920.50,84.859
921.00,84.879
921.50,84.851
922.00,84.962
922.50,84.919
923.00,84.948
923.50,84.912
924.00,84.922
924.50,84.939
925.00,85.025
925.50,85.015
926.00,84.924
926.50,84.908
927.00,84.882
927.50,84.944
928.00,85.000
928.50,84.933
929.00,84.902
929.50,84.966
930.00,85.003
930.50,85.010
931.00,84.942
931.50,85.012
932.00,85.049
932.50,84.971
933.00,85.026
933.50,84.879
934.00,85.114
934.50,85.049
935.00,84.917
935.50,85.089
936.00,85.059
936.50,85.036
937.00,85.075
937.50,85.082
938.00,85.067
938.50,85.055
939.00,84.970
939.50,85.050
940.00,85.047
940.50,85.007
941.00,85.117
941.50,85.082
942.00,85.066
942.50,85.077
943.00,85.009
943.50,85.083
944.00,85.111
944.50,85.114
945.00,85.081
945.50,85.111
946.00,85.077
946.50,85.037
947.00,85.062
947.50,85.102
948.00,85.072
948.50,85.152
949.00,85.099
949.50,85.106
950.00,85.083
950.50,85.144
951.00,85.101
951.50,85.135
952.00,85.152
952.50,85.138
953.00,85.145
953.50,85.172
954.00,85.157
954.50,85.136
955.00,85.142
955.50,85.240
956.00,85.214
956.50,85.165
957.00,85.212
957.50,85.180
958.00,85.237
958.50,85.232
959.00,85.197
959.50,85.248
960.00,85.211
960.50,85.222
961.00,85.243
961.50,85.255
962.00,85.251
962.50,85.201
963.00,85.319
963.50,85.143
964.00,85.303
964.50,85.208
965.00,85.259
965.50,85.259
966.00,85.321
966.50,85.298
967.00,85.279
967.50,85.261
968.00,85.295
968.50,85.303
969.00,85.326
969.50,85.373
970.00,85.307
970.50,85.328
971.00,85.328
971.50,85.333
972.00,85.345
972.50,85.337
973.00,85.350
973.50,85.389
974.00,85.402
974.50,85.360
975.00,85.341
975.50,85.311
976.00,85.390
976.50,85.339
977.00,85.373
977.50,85.439
978.00,85.362
978.50,85.397
979.00,85.397
979.50,85.376
980.00,85.332
980.50,85.345
981.00,85.431
981.50,85.423
982.00,85.405
982.50,85.400
983.00,85.416
983.50,85.439
984.00,85.470
984.50,85.432
985.00,85.442
985.50,85.429
986.00,85.449
986.50,85.441
987.00,85.456
987.50,85.407
988.00,85.461
988.50,85.502
989.00,85.448
989.50,85.526
990.00,85.482
990.50,85.503
991.00,85.451
991.50,85.481
992.00,85.514
992.50,85.517
993.00,85.506
993.50,85.523
994.00,85.488
994.50,85.483
995.00,85.500
995.50,85.497
996.00,85.517
996.50,85.483
997.00,85.487
997.50,85.482
998.00,85.451
998.50,85.521
999.00,85.517
999.50,85.499
1000.00,85.545
1000.50,85.545
1001.00,85.553
1001.50,85.556
1002.00,85.580
1002.50,85.597
1003.00,85.557
1003.50,85.543
1004.00,85.606
1004.50,85.608
1005.00,85.562
1005.50,85.564
1006.00,85.579
1006.50,85.540
1007.00,85.570
1007.50,85.601
1008.00,85.559
1008.50,85.630
1009.00,85.574
1009.50,85.592
1010.00,85.609
1010.50,85.579
1011.00,85.563
1011.50,85.579
1012.00,85.575
1012.50,85.602
1013.00,85.588
1013.50,85.640
1014.00,85.604
1014.50,85.632
1015.00,85.667
1015.50,85.591
1016.00,85.683
1016.50,85.584
1017.00,85.610
1017.50,85.693
1018.00,85.632
1018.50,85.629
1019.00,85.612
1019.50,85.634
1020.00,85.636
1020.50,85.640
1021.00,85.634
1021.50,85.682
1022.00,85.649
1022.50,85.658
1023.00,85.629
1023.50,85.668
1024.00,85.658
1024.50,85.660
1025.00,85.672
1025.50,85.666
1026.00,85.640
1026.50,85.723
1027.00,85.665
1027.50,85.692
1028.00,85.666
1028.50,85.668
1029.00,85.671
1029.50,85.643
1030.00,85.696
1030.50,85.649
1031.00,85.671
1031.50,85.688
1032.00,85.716
1032.50,85.705
1033.00,85.682
1033.50,85.661
1034.00,85.723
1034.50,85.663
1035.00,85.685
1035.50,85.727
1036.00,85.661
1036.50,85.709
1037.00,85.702
1037.50,85.706
1038.00,85.742
1038.50,85.712
1039.00,85.720
1039.50,85.705
1040.00,85.722
1040.50,85.715
1041.00,85.740
1041.50,85.759
1042.00,85.731
1042.50,85.705
1043.00,85.707
1043.50,85.731
1044.00,85.766
1044.50,85.726
1045.00,85.709
1045.50,85.757
1046.00,85.757
1046.50,85.772
1047.00,85.730
1047.50,85.759
1048.00,85.759
1048.50,85.739
1049.00,85.719
1049.50,85.762
1050.00,85.761
1050.50,85.754
1051.00,85.756
1051.50,85.735
1052.00,85.766
1052.50,85.766
1053.00,85.732
1053.50,85.755
1054.00,85.763
1054.50,85.773
1055.00,85.748
1055.50,85.775
1056.00,85.760
1056.50,85.760
1057.00,85.768
1057.50,85.757
1058.00,85.792
1058.50,85.763
1059.00,85.785
1059.50,85.810
1060.00,85.776
1060.50,85.802
1061.00,85.793
1061.50,85.805
1062.00,85.801
1062.50,85.782
1063.00,85.788
1063.50,85.810
1064.00,85.784
1064.50,85.806
1065.00,85.786
1065.50,85.797
1066.00,85.778
1066.50,85.789
1067.00,85.791
1067.50,85.787
1068.00,85.794
1068.50,85.807
1069.00,85.794
1069.50,85.786
1070.00,85.808
1070.50,85.801
1071.00,85.795
1071.50,85.796
1072.00,85.802
1072.50,85.848
1073.00,85.819
1073.50,85.855
1074.00,85.839
1074.50,85.871
1075.00,85.841
1075.50,85.856
1076.00,85.821
1076.50,85.826
1077.00,85.817
1077.50,85.863
1078.00,85.852
1078.50,85.855
1079.00,85.840
1079.50,85.848
1080.00,85.857
1080.50,85.860
1081.00,85.859
1081.50,85.853
1082.00,85.885
1082.50,85.860
1083.00,85.846
1083.50,85.885
1084.00,85.859
1084.50,85.893
1085.00,85.868
1085.50,85.895
1086.00,85.905
1086.50,85.888
1087.00,85.884
1087.50,85.884
1088.00,85.891
1088.50,85.871
1089.00,85.861
1089.50,85.881
1090.00,85.857
1090.50,85.863
1091.00,85.889
1091.50,85.839
1092.00,85.879
1092.50,85.850
1093.00,85.837
1093.50,85.846
1094.00,85.871
1094.50,85.855
1095.00,85.857
1095.50,85.885
1096.00,85.852
1096.50,85.896
1097.00,85.891
1097.50,85.893
1098.00,85.875
1098.50,85.884
1099.00,85.887
1099.50,85.864
1100.00,85.893
1100.50,85.872
1101.00,85.857
1101.50,85.884
1102.00,85.874
1102.50,85.864
1103.00,85.882
1103.50,85.891
1104.00,85.906
1104.50,85.880
1105.00,85.886
1105.50,85.898
1106.00,85.886
1106.50,85.877
1107.00,85.878
1107.50,85.873
1108.00,85.876
1108.50,85.904
1109.00,85.877
1109.50,85.884
1110.00,85.889
1110.50,85.878
1111.00,85.879
1111.50,85.866
1112.00,85.865
1112.50,85.875
1113.00,85.876
1113.50,85.881
1114.00,85.880
1114.50,85.891
1115.00,85.882
1115.50,85.881
1116.00,85.873
1116.50,85.898
1117.00,85.899
1117.50,85.874
1118.00,85.890
1118.50,85.909
1119.00,85.912
1119.50,85.900
1120.00,85.917
1120.50,85.941
1121.00,85.917
1121.50,85.905
1122.00,85.911
1122.50,85.943
1123.00,85.906
1123.50,85.887
1124.00,85.930
1124.50,85.950
1125.00,85.902
1125.50,85.920
1126.00,85.949
1126.50,85.929
1127.00,85.924
1127.50,85.943
1128.00,85.914
1128.50,85.931
1129.00,85.930
1129.50,85.946
1130.00,85.914
1130.50,85.937
1131.00,85.947
1131.50,85.943
1132.00,85.919
1132.50,85.929
1133.00,85.940
1133.50,85.933
1134.00,85.963
1134.50,86.156
1135.00,85.951
1135.50,85.943
1136.00,85.945
1136.50,85.931
1137.00,85.946
1137.50,85.919
1138.00,85.966
1138.50,85.964
1139.00,85.902
1139.50,85.920
1140.00,85.931
1140.50,85.949
1141.00,85.947
1141.50,85.956
1142.00,85.940
1142.50,85.940
1143.00,85.921
1143.50,85.961
1144.00,85.874
1144.50,85.945
1145.00,85.950
1145.50,85.942
1146.00,85.936
1146.50,85.975
1147.00,85.933
1147.50,85.961
1148.00,85.973
1148.50,85.946
1149.00,85.970
1149.50,85.953
1150.00,85.974
1150.50,85.969
1151.00,85.955
1151.50,85.936
1152.00,85.946
1152.50,85.978
1153.00,85.936
1153.50,85.949
1154.00,85.980
1154.50,85.964
1155.00,85.960
1155.50,85.976
1156.00,85.949
1156.50,85.942
1157.00,85.960
1157.50,85.952
1158.00,85.983
1158.50,85.968
1159.00,85.934
1159.50,85.976
1160.00,85.978
1160.50,85.993
1161.00,85.982
1161.50,85.975
1162.00,85.984
1162.50,85.975
1163.00,85.973
1163.50,85.923
1164.00,85.997
1164.50,85.966
1165.00,85.996
1165.50,85.983
1166.00,85.997
1166.50,85.981
1167.00,85.990
1167.50,85.992
1168.00,85.977
1168.50,85.985
1169.00,85.991
1169.50,86.037
1170.00,85.998
1170.50,86.003
1171.00,86.003
1171.50,86.001
1172.00,86.009
1172.50,86.013
1173.00,86.009
1173.50,86.019
1174.00,86.011
1174.50,85.999
1175.00,86.017
1175.50,86.013
1176.00,86.016
1176.50,85.994
1177.00,85.991
1177.50,86.008
1178.00,86.023
1178.50,86.018
1179.00,85.978
1179.50,86.006
1180.00,86.008
1180.50,85.983
1181.00,85.989
1181.50,85.985
1182.00,85.986
1182.50,85.987
1183.00,85.964
1183.50,85.981
1184.00,85.972
1184.50,85.977
1185.00,85.981
1185.50,85.979
1186.00,85.998
1186.50,85.988
1187.00,85.991
1187.50,85.975
1188.00,85.999
1188.50,85.988
1189.00,85.993
1189.50,85.995
1190.00,85.996
1190.50,86.021
1191.00,86.006
1191.50,86.006
1192.00,86.011
1192.50,86.002
1193.00,86.018
1193.50,86.014
1194.00,86.021
1194.50,86.018
1195.00,86.010
1195.50,86.030
1196.00,85.986
1196.50,86.019
1197.00,86.029
1197.50,86.018
1198.00,86.008
1198.50,86.020
1199.00,86.010
1199.50,86.017
1200.00,86.005
1200.50,85.985
1201.00,86.024
1201.50,86.036
1202.00,86.015
1202.50,86.012
1203.00,86.015
1203.50,86.051
1204.00,86.014
1204.50,86.022
1205.00,86.018
1205.50,86.031
1206.00,86.010
1206.50,86.039
1207.00,86.015
1207.50,85.997
1208.00,86.003
1208.50,86.019
1209.00,86.018
1209.50,86.026
1210.00,86.033
1210.50,85.984
1211.00,85.984
1211.50,85.974
1212.00,85.988
1212.50,86.008
1213.00,85.996
1213.50,86.004
1214.00,85.979
1214.50,85.993
1215.00,86.002
1215.50,86.011
1216.00,85.990
1216.50,86.003
1217.00,85.983
1217.50,86.015
1218.00,86.022
1218.50,86.004
1219.00,86.014
1219.50,86.005
1220.00,86.013
1220.50,86.031
1221.00,86.020
1221.50,86.021
1222.00,86.020
1222.50,86.025
1223.00,86.044
1223.50,86.027
1224.00,86.024
1224.50,86.027
1225.00,86.019
1225.50,86.014
1226.00,86.021
1226.50,86.012
1227.00,86.049
1227.50,85.984
1228.00,85.991
1228.50,86.018
1229.00,85.984
1229.50,86.035
1230.00,85.994
1230.50,85.974
1231.00,86.009
1231.50,85.994
1232.00,85.981
1232.50,85.980
1233.00,85.962
1233.50,85.978
1234.00,85.962
1234.50,85.966
1235.00,86.000
1235.50,85.990
1236.00,85.983
1236.50,85.984
1237.00,86.017
1237.50,86.008
1238.00,85.986
1238.50,85.998
1239.00,85.997
1239.50,86.007
1240.00,85.992
1240.50,85.994
1241.00,85.993
1241.50,85.990
1242.00,85.986
1242.50,85.968
1243.00,85.983
1243.50,85.979
1244.00,85.970
1244.50,85.951
1245.00,85.971
1245.50,85.977
1246.00,85.944
1246.50,85.956
1247.00,85.968
1247.50,85.943
1248.00,85.970
1248.50,85.967
1249.00,85.962
1249.50,85.985
1250.00,85.965
1250.50,85.952
1251.00,85.952
1251.50,85.981
1252.00,85.976
1252.50,86.000
1253.00,85.973
1253.50,85.997
1254.00,86.009
1254.50,86.008
1255.00,85.995
1255.50,86.003
1256.00,85.987
1256.50,85.995
1257.00,85.971
1257.50,85.975
1258.00,85.974
1258.50,85.971
1259.00,85.970
1259.50,85.957
1260.00,85.968
1260.50,85.982
1261.00,85.946
1261.50,85.975
1262.00,85.948
1262.50,85.960
1263.00,85.962
1263.50,85.954
1264.00,85.946
1264.50,85.947
1265.00,85.957
1265.50,85.934
1266.00,85.935
1266.50,85.961
1267.00,85.935
1267.50,85.968
1268.00,85.967
1268.50,85.953
1269.00,85.949
1269.50,85.973
1270.00,85.975
1270.50,85.986
1271.00,85.975
1271.50,85.974
1272.00,85.979
1272.50,85.987
1273.00,85.960
1273.50,85.975
1274.00,85.972
1274.50,85.955
1275.00,85.970
1275.50,85.930
1276.00,85.972
1276.50,85.942
1277.00,85.964
1277.50,85.957
1278.00,85.942
1278.50,85.934
1279.00,85.925
1279.50,85.945
1280.00,85.937
1280.50,85.940
1281.00,85.916
1281.50,85.921
1282.00,85.936
1282.50,85.917
1283.00,85.923
1283.50,85.922
1284.00,85.927
1284.50,85.933
1285.00,85.923
1285.50,85.944
1286.00,85.915
1286.50,85.927
1287.00,85.922
1287.50,85.904
1288.00,85.936
1288.50,85.924
1289.00,85.925
1289.50,85.921
1290.00,85.912
1290.50,85.947
1291.00,85.910
1291.50,85.911
1292.00,85.927
1292.50,85.924
1293.00,85.902
1293.50,85.909
1294.00,85.908
1294.50,85.880
1295.00,85.892
1295.50,85.867
1296.00,85.845
1296.50,85.873
1297.00,85.875
1297.50,85.864
1298.00,85.879
1298.50,85.843
1299.00,85.875
1299.50,85.873
1300.00,85.839
1300.50,85.840
1301.00,85.847
1301.50,85.853
1302.00,85.875
1302.50,85.874
1303.00,85.845
1303.50,85.879
1304.00,85.838
1304.50,85.873
1305.00,85.856
1305.50,85.847
1306.00,85.847
1306.50,85.841
1307.00,85.850
1307.50,85.841
1308.00,85.855
1308.50,85.854
1309.00,85.874
1309.50,85.844
1310.00,85.842
1310.50,85.829
1311.00,85.867
1311.50,85.857
1312.00,85.865
1312.50,85.836
1313.00,85.843
1313.50,85.833
1314.00,85.823
1314.50,85.809
1315.00,85.795
1315.50,85.814
1316.00,85.809
1316.50,85.816
1317.00,85.799
1317.50,85.811
1318.00,85.827
1318.50,85.813
1319.00,85.785
1319.50,85.790
1320.00,85.780
1320.50,85.732
1321.00,85.768
1321.50,85.758
1322.00,85.756
1322.50,85.748
1323.00,85.743
1323.50,85.780
1324.00,85.755
1324.50,85.755
1325.00,85.797
1325.50,85.790
1326.00,85.790
1326.50,85.784
1327.00,85.777
1327.50,85.782
1328.00,85.773
1328.50,85.791
1329.00,85.805
1329.50,85.786
1330.00,85.779
1330.50,85.792
1331.00,85.781
1331.50,85.798
1332.00,85.782
1332.50,85.778
1333.00,85.761
1333.50,85.761
1334.00,85.802
1334.50,85.762
1335.00,85.809
1335.50,85.752
1336.00,85.773
1336.50,85.799
1337.00,85.768
1337.50,85.774
1338.00,85.770
1338.50,85.758
1339.00,85.777
1339.50,85.784
1340.00,85.781
1340.50,85.785
1341.00,85.785
1341.50,85.784
1342.00,85.814
1342.50,85.800
1343.00,85.785
1343.50,85.780
1344.00,85.783
1344.50,85.788
1345.00,85.826
1345.50,85.779
1346.00,85.784
1346.50,85.794
1347.00,85.797
1347.50,85.796
1348.00,85.820
1348.50,85.769
1349.00,85.780
1349.50,85.747
1350.00,85.726
1350.50,85.753
1351.00,85.649
1351.50,85.753
1352.00,85.739
1352.50,85.746
1353.00,85.755
1353.50,85.701
1354.00,85.726
1354.50,85.785
1355.00,85.671
1355.50,85.851
1356.00,85.733
1356.50,85.708
1357.00,85.761
1357.50,85.726
1358.00,85.695
1358.50,85.620
1359.00,85.697
1359.50,85.769
1360.00,85.706
1360.50,85.664
1361.00,85.706
1361.50,85.844
1362.00,85.596
1362.50,85.737
1363.00,85.692
1363.50,85.615
1364.00,86.079
1364.50,85.689
1365.00,85.647
1365.50,85.747
1366.00,85.769
1366.50,85.638
1367.00,85.894
1367.50,85.568
1368.00,85.855
1368.50,85.652
1369.00,85.866
1369.50,85.569
1370.00,85.767
1370.50,85.671
1371.00,85.718
1371.50,85.886
1372.00,85.604
1372.50,85.744
1373.00,85.655
1373.50,85.701
1374.00,85.715
1374.50,85.564
1375.00,85.704
1375.50,85.650
1376.00,85.668
1376.50,85.630
1377.00,85.594
1377.50,85.622
1378.00,85.801
1378.50,85.579
1379.00,85.657
1379.50,85.471
1380.00,85.205
1380.50,85.695
1381.00,85.684
1381.50,85.588
1382.00,85.916
1382.50,85.594
1383.00,85.728
1383.50,85.655
1384.00,85.691
1384.50,85.721
1385.00,85.702
1385.50,85.652
1386.00,85.663
1386.50,85.635
1387.00,85.673
1387.50,85.740
1388.00,85.602
1388.50,85.672
1389.00,85.697
1389.50,85.647
1390.00,85.657
1390.50,85.599
1391.00,85.601
1391.50,85.701
1392.00,85.777
1392.50,85.645
1393.00,85.635
1393.50,85.564
1394.00,85.455
1394.50,85.588
1395.00,85.671
1395.50,84.826
1396.00,85.951
1396.50,85.533
1397.00,85.538
1397.50,85.590
1398.00,85.538
1398.50,85.439
1399.00,85.774
1399.50,85.402
1400.00,85.816
1400.50,85.347
1401.00,85.725
1401.50,85.450
1402.00,85.517
1402.50,85.613
1403.00,85.531
1403.50,85.631
1404.00,85.380
1404.50,85.974
1405.00,85.382
1405.50,85.567
1406.00,85.567
1406.50,85.760
1407.00,85.552
1407.50,85.596
1408.00,85.602
1408.50,85.630
1409.00,85.617
1409.50,85.590
1410.00,85.600
1410.50,85.625
1411.00,85.581
1411.50,85.679
1412.00,85.557
1412.50,85.557
1413.00,85.555
1413.50,85.663
1414.00,85.579
1414.50,85.436
1415.00,85.546
1415.50,85.524
1416.00,85.516
1416.50,85.504
1417.00,85.537
1417.50,85.487
1418.00,85.535
1418.50,85.505
1419.00,85.522
1419.50,85.474
1420.00,85.524
1420.50,85.493
1421.00,85.510
1421.50,85.493
1422.00,85.514
1422.50,85.512
1423.00,85.507
1423.50,85.513
1424.00,85.491
1424.50,85.546
1425.00,85.544
1425.50,85.525
1426.00,85.528
1426.50,85.548
1427.00,85.513
1427.50,85.561
1428.00,85.514
1428.50,85.529
1429.00,85.562
1429.50,85.538
1430.00,85.502
1430.50,85.567
1431.00,85.540
1431.50,85.520
1432.00,85.556
1432.50,85.492
1433.00,85.520
1433.50,85.551
1434.00,85.382
1434.50,85.508
1435.00,85.505
1435.50,85.551
1436.00,85.468
1436.50,85.484
1437.00,85.552
1437.50,85.442
1438.00,85.462
1438.50,85.453
1439.00,85.486
1439.50,85.440
1440.00,85.511
1440.50,85.454
1441.00,85.481
1441.50,85.436
1442.00,85.453
1442.50,85.466
1443.00,85.468
1443.50,85.460
1444.00,85.444
1444.50,85.413
1445.00,85.556
1445.50,85.461
1446.00,85.497
1446.50,85.470
1447.00,85.430
1447.50,85.504
1448.00,85.470
1448.50,85.418
1449.00,85.473
1449.50,85.467
1450.00,85.535
1450.50,85.471
1451.00,85.482
1451.50,85.509
1452.00,85.500
1452.50,85.518
1453.00,85.491
1453.50,85.514
1454.00,85.515
1454.50,85.488
1455.00,85.519
1455.50,85.458
1456.00,85.489
1456.50,85.458
1457.00,85.502
1457.50,85.460
1458.00,85.464
1458.50,85.461
1459.00,85.458
1459.50,85.413
1460.00,85.441
1460.50,85.387
1461.00,85.465
1461.50,85.409
1462.00,85.453
1462.50,85.384
1463.00,85.443
1463.50,85.452
1464.00,85.391
1464.50,85.412
1465.00,85.440
1465.50,85.373
1466.00,85.399
1466.50,85.385
1467.00,85.382
1467.50,85.417
1468.00,85.388
1468.50,85.377
1469.00,85.380
1469.50,85.438
1470.00,85.354
1470.50,85.459
1471.00,85.379
1471.50,85.406
1472.00,85.456
1472.50,85.410
1473.00,85.412
1473.50,85.443
1474.00,85.418
1474.50,85.456
1475.00,85.420
1475.50,85.457
1476.00,85.436
1476.50,85.468
1477.00,85.454
1477.50,85.484
1478.00,85.444
1478.50,85.469
1479.00,85.452
1479.50,85.448
1480.00,85.464
1480.50,85.399
1481.00,85.430
1481.50,85.449
1482.00,85.426
1482.50,85.431
1483.00,85.411
1483.50,85.388
1484.00,85.481
1484.50,85.416
1485.00,85.394
1485.50,85.387
1486.00,85.376
1486.50,85.391
1487.00,85.380
1487.50,85.368
1488.00,85.402
1488.50,85.387
1489.00,85.370
1489.50,85.387
1490.00,85.391
1490.50,85.413
1491.00,85.438
1491.50,85.391
1492.00,85.387
1492.50,85.390
1493.00,85.400
1493.50,85.411
1494.00,85.416
1494.50,85.419
1495.00,85.438
1495.50,85.401
1496.00,85.405
1496.50,85.425
1497.00,85.392
1497.50,85.412
1498.00,85.437
1498.50,85.429
1499.00,85.420
1499.50,85.437
1500.00,85.444
1500.50,85.419
1501.00,85.429
1501.50,85.439
1502.00,85.431
1502.50,85.423
1503.00,85.440
1503.50,85.402
1504.00,85.417
1504.50,85.412
1505.00,85.412
1505.50,85.426
1506.00,85.407
1506.50,85.409
1507.00,85.392
1507.50,85.386
1508.00,85.395
1508.50,85.368
1509.00,85.351
1509.50,85.377
1510.00,85.360
1510.50,85.343
1511.00,85.381
1511.50,85.352
1512.00,85.352
1512.50,85.367
1513.00,85.352
1513.50,85.367
1514.00,85.351
1514.50,85.305
1515.00,85.352
1515.50,85.358
1516.00,85.313
1516.50,85.411
1517.00,85.397
1517.50,85.366
1518.00,85.388
1518.50,85.390
1519.00,85.368
1519.50,85.393
1520.00,85.376
1520.50,85.384
1521.00,85.406
1521.50,85.413
1522.00,85.405
1522.50,85.422
1523.00,85.421
1523.50,85.388
1524.00,85.439
1524.50,85.445
1525.00,85.436
1525.50,85.412
1526.00,85.405
1526.50,85.402
1527.00,85.449
1527.50,85.410
1528.00,85.412
1528.50,85.404
1529.00,85.385
1529.50,85.372
1530.00,85.362
1530.50,85.374
1531.00,85.373
1531.50,85.323
1532.00,85.381
1532.50,85.328
1533.00,85.331
1533.50,85.330
1534.00,85.316
1534.50,85.339
1535.00,85.325
1535.50,85.295
1536.00,85.319
1536.50,85.289
1537.00,85.258
1537.50,85.286
1538.00,85.302
1538.50,85.266
1539.00,85.306
1539.50,85.280
1540.00,85.285
1540.50,85.268
1541.00,85.297
1541.50,85.286
1542.00,85.308
1542.50,85.292
1543.00,85.299
1543.50,85.283
1544.00,85.305
1544.50,85.286
1545.00,85.282
1545.50,85.288
1546.00,85.326
1546.50,85.293
1547.00,85.309
1547.50,85.319
1548.00,85.322
1548.50,85.312
1549.00,85.324
1549.50,85.304
1550.00,85.319
1550.50,85.321
1551.00,85.334
1551.50,85.355
1552.00,85.298
1552.50,85.321
1553.00,85.343
1553.50,85.331
1554.00,85.258
1554.50,85.299
1555.00,85.264
1555.50,85.265
1556.00,85.280
1556.50,85.265
1557.00,85.266
1557.50,85.286
1558.00,85.265
1558.50,85.273
1559.00,85.225
1559.50,85.251
1560.00,85.227
1560.50,85.234
1561.00,85.261
1561.50,85.229
1562.00,85.194
1562.50,85.212
1563.00,85.185
1563.50,85.195
1564.00,85.230
1564.50,85.222
1565.00,85.187
1565.50,85.208
1566.00,85.237
1566.50,85.187
1567.00,85.222
1567.50,85.215
1568.00,85.266
1568.50,85.227
1569.00,85.244
1569.50,85.254
1570.00,85.220
1570.50,85.262
1571.00,85.243
1571.50,85.242
1572.00,85.260
1572.50,85.243
1573.00,85.271
1573.50,85.263
1574.00,85.248
1574.50,85.261
1575.00,85.295
1575.50,85.299
1576.00,85.248
1576.50,85.279
1577.00,85.281
1577.50,85.283
1578.00,85.305
1578.50,85.245
1579.00,85.309
1579.50,85.258
1580.00,85.260
1580.50,85.234
1581.00,85.223
1581.50,85.237
1582.00,85.237
1582.50,85.242
1583.00,85.220
1583.50,85.233
1584.00,85.228
1584.50,85.191
1585.00,85.188
1585.50,85.217
1586.00,85.177
1586.50,85.194
1587.00,85.200
1587.50,85.175
1588.00,85.240
1588.50,85.203
1589.00,85.201
1589.50,85.143
1590.00,85.180
1590.50,85.162
1591.00,85.158
1591.50,85.140
1592.00,85.141
1592.50,85.115
1593.00,85.106
1593.50,85.147
1594.00,85.088
1594.50,85.153
1595.00,85.096
1595.50,85.125
1596.00,85.129
1596.50,85.100
1597.00,85.130
1597.50,85.151
1598.00,85.114
1598.50,85.237
1599.00,85.128
1599.50,85.137
1600.00,85.179
